Vload_(V)	ILoad_(A)	RsLoad (ohm)	SunsVoc_Voltage_(V)	SunsVoc_Current_(A)	Model_Voltage_(V)	Model_Current_(A)	Carrier_Density_(cm-3)	Lifetime_(s)	Inverse_Lifetime_(s-1)	Efficiency_(%)	Intensity_(suns)	Dark_IV_Voltage_(V)	Dark_IV_Current_(A)
4.211213	3.707401	0	66.071177	-0.388675	66.697814	-0.388675	3.468077E+15	0.000382	2601.090598	15.314845	1.11499	0	0
4.876567	3.706318	5.455407	66.39742	-0.401142	67.034746	-0.401142	3.814461E+15	0.000418	2366.143272	15.268097	1.113853	0	0
9.415115	3.68269	10.786515	66.390111	-0.225345	66.748252	-0.225345	3.806397E+15	0.000436	2268.815835	15.302574	1.110593	0	0
13.742957	3.679227	9.819498	66.263558	0.016196	66.23767	0.016196	3.669022E+15	0.000448	2210.273748	15.257409	1.108306	0	0
18.062987	3.668344	9.130495	66.097394	0.252541	65.690714	0.252541	3.494912E+15	0.000456	2173.495631	15.301967	1.106587	0	0
22.384767	3.658606	8.259041	65.922981	0.481854	65.140982	0.481854	3.319585E+15	0.000464	2138.044842	15.26891	1.106296	0	0
26.720898	3.654951	7.168921	65.73991	0.698367	64.597339	0.698367	3.143472E+15	0.000471	2107.890725	15.309944	1.105066	0	0
31.029161	3.652793	6.044549	65.556473	0.899817	64.072448	0.899817	2.974863E+15	0.000477	2079.724989	15.269418	1.103685	0	0
35.358093	3.64767	4.970046	65.37573	1.080934	63.578948	1.080934	2.816162E+15	0.000483	2056.553692	15.311242	1.100452	0	0
39.649961	3.642901	3.88882	65.192986	1.244798	63.107464	1.244798	2.662944E+15	0.000487	2040.475037	15.276822	1.096677	0	0
43.973184	3.63203	2.883938	65.023106	1.39575	62.667628	1.39575	2.526819E+15	0.000493	2019.630783	15.320618	1.091738	0	0
45.402202	3.624168	2.604635	64.847141	1.540225	62.228357	1.540225	2.39201E+15	0.000497	2001.113446	15.286937	1.087706	0	0
46.819803	3.606818	2.422137	64.672238	1.673581	61.805665	1.673581	2.26405E+15	0.000502	1985.025085	15.327275	1.083812	0	0
48.247942	3.5754	2.31625	64.498151	1.797247	61.397259	1.797247	2.142457E+15	0.000505	1970.959035	15.303888	1.080803	0	0
49.670371	3.528288	2.233296	64.3199	1.915066	60.99118	1.915066	2.023713E+15	0.000509	1958.67576	15.346481	1.0765	0	0
51.100721	3.461456	2.153736	64.147488	2.0257	60.601351	2.0257	1.91421E+15	0.000513	1943.565806	15.312259	1.072004	0	0
52.542221	3.367712	2.076044	63.968623	2.130888	60.21094	2.130888	1.80597E+15	0.000516	1931.828553	15.3513	1.066219	0	0
53.958062	3.240303	2.014013	63.790821	2.229316	59.831062	2.229316	1.70359E+15	0.000519	1920.627884	15.327114	1.06095	0	0
55.364755	3.072796	1.956534	63.616081	2.320782	59.464697	2.320782	1.607856E+15	0.000523	1909.555737	15.363182	1.055132	0	0
56.76674	2.860802	1.89965	63.43934	2.405576	59.105703	2.405576	1.515765E+15	0.000525	1902.163767	15.339558	1.050326	0	0
58.159928	2.598623	1.849819	63.26946	2.483744	58.764661	2.483744	1.431575E+15	0.000527	1893.489263	15.376894	1.045017	0	0
59.539842	2.282744	1.807349	63.097702	2.555476	58.431238	2.555476	1.350604E+15	0.000528	1889.722292	15.356952	1.040383	0	0
60.914472	1.915225	1.765579	62.931782	2.620694	58.114957	2.620694	1.276199E+15	0.000529	1886.987767	15.385865	1.034684	0	0
62.25677	1.50288	1.747894	62.766558	2.681849	57.805467	2.681849	1.20569E+15	0.00053	1885.227183	15.376743	1.029005	0	0
63.561696	1.052572	1.775895	62.605376	2.73912	57.506591	2.73912	1.140223E+15	0.000531	1882.395601	15.396738	1.022335	0	0
64.78735	0.594125	1.781977	62.441988	2.794144	57.207951	2.794144	1.077077E+15	0.000531	1879.744687	15.389934	1.016411	0	0
51.811034	3.418073	2.117291	62.275783	2.845493	56.911547	2.845493	1.016036E+15	0.000531	1880.845909	15.410496	1.010236	0	0
66.202068	0	0	62.113131	2.893689	56.624192	2.893689	9.592955E+14	0.000531	1880.886425	15.406424	1.004716	0	0
0	0	0	61.947539	2.939862	56.336009	2.939862	9.044508E+14	0.000531	1881.912239	15.423241	0.998799	0	0
0	0	0	61.788154	2.98244	56.061168	2.98244	8.54333E+14	0.000531	1881.935992	15.424287	0.993206	0	0
0	0	0	61.622847	3.022158	55.783668	3.022158	8.050065E+14	0.000529	1887.969018	15.438116	0.986872	0	0
0	0	0	61.462155	3.059433	55.515603	3.059433	7.595384E+14	0.000528	1892.261357	15.43545	0.981021	0	0
0	0	0	61.302321	3.094377	55.252282	3.094377	7.166364E+14	0.000527	1897.494327	15.451566	0.974721	0	0
0	0	0	61.143467	3.126925	54.994071	3.126925	6.761958E+14	0.000525	1904.301394	15.447704	0.969492	0	0
0	0	0	60.980079	3.157763	54.732938	3.157763	6.367876E+14	0.000522	1914.815401	15.463615	0.963747	0	0
0	0	0	60.823308	3.186237	54.483914	3.186237	6.009677E+14	0.00052	1923.912181	15.467527	0.95855	0	0
0	0	0	60.668129	3.213209	54.239213	3.213209	5.673482E+14	0.000517	1932.514026	15.474212	0.952951	0	0
0	0	0	60.510459	3.238543	53.994136	3.238543	5.349771E+14	0.000514	1944.449864	15.480318	0.947754	0	0
0	0	0	60.352625	3.262927	53.750207	3.262927	5.042958E+14	0.000511	1955.530245	15.491244	0.94195	0	0
0	0	0	60.198835	3.285337	53.514737	3.285337	4.759831E+14	0.000508	1967.438654	15.495472	0.936647	0	0
0	0	0	60.048025	3.306699	53.284604	3.306699	4.496667E+14	0.000506	1977.213309	15.501795	0.93081	0	0
0	0	0	59.892846	3.326641	53.051514	3.326641	4.240152E+14	0.000502	1992.514709	15.509996	0.925455	0	0
0	0	0	59.744038	3.345409	52.828311	3.345409	4.007137E+14	0.000499	2004.492557	15.507705	0.919769	0	0
0	0	0	59.587919	3.363394	52.597253	3.363394	3.775679E+14	0.000495	2021.707689	15.515713	0.914732	0	0
0	0	0	59.43662	3.380547	52.373521	3.380547	3.563468E+14	0.000491	2035.320652	15.523118	0.909079	0	0
0	0	0	59.279358	3.396794	52.143901	3.396794	3.354902E+14	0.000487	2054.420789	15.523607	0.903876	0	0
0	0	0	59.126956	3.412048	51.92206	3.412048	3.163888E+14	0.000483	2071.484661	15.532121	0.897886	0	0
0	0	0	58.973451	3.426476	51.700266	3.426476	2.981992E+14	0.000478	2090.497956	15.538263	0.892558	0	0
0	0	0	58.822846	3.44017	51.483335	3.44017	2.813267E+14	0.000474	2107.876473	15.542042	0.886859	0	0
0	0	0	58.668728	3.453478	51.262554	3.453478	2.650086E+14	0.00047	2126.258164	15.545216	0.881742	0	0
0	0	0	58.518654	3.465637	51.049001	3.465637	2.499937E+14	0.000466	2146.039531	15.550881	0.876308	0	0
0	0	0	58.365721	3.477119	50.83308	3.477119	2.355358E+14	0.000461	2169.606452	15.550424	0.871468	0	0
0	0	0	58.215687	3.488081	50.621667	3.488081	2.221367E+14	0.000456	2190.984195	15.560392	0.86606	0	0
0	0	0	58.063081	3.498189	50.408664	3.498189	2.092638E+14	0.000451	2218.57743	15.555018	0.861234	0	0
0	0	0	57.913374	3.508014	50.199694	3.508014	1.973381E+14	0.000446	2242.180782	15.568864	0.855826	0	0
0	0	0	57.761952	3.51725	49.989664	3.51725	1.859465E+14	0.000441	2269.322034	15.56478	0.851139	0	0
0	0	0	57.610285	3.525927	49.780368	3.525927	1.751772E+14	0.000435	2298.922967	15.580784	0.845962	0	0
0	0	0	57.458291	3.534136	49.571516	3.534136	1.649939E+14	0.000429	2330.404817	15.570024	0.841526	0	0
0	0	0	57.308625	3.541898	49.366408	3.541898	1.555306E+14	0.000423	2361.453239	15.59133	0.836429	0	0
0	0	0	57.155406	3.549298	49.157489	3.549298	1.463913E+14	0.000417	2396.705116	15.572766	0.832013	0	0
0	0	0	57.004842	3.556287	48.952671	3.556287	1.37922E+14	0.000411	2431.436241	15.603114	0.826777	0	0
0	0	0	56.847417	3.563107	48.739468	3.563107	1.295792E+14	0.000405	2471.185262	15.578946	0.822341	0	0
0	0	0	56.692564	3.56947	48.530388	3.56947	1.218553E+14	0.000398	2511.946885	15.609061	0.81723	0	0
0	0	0	56.54057	3.575554	48.325401	3.575554	1.147135E+14	0.000392	2550.632346	15.587201	0.812722	0	0
0	0	0	56.382982	3.581315	48.113992	3.581315	1.077426E+14	0.000385	2597.006946	15.615591	0.80775	0	0
0	0	0	56.228946	3.586724	47.907738	3.586724	1.013315E+14	0.000378	2642.859219	15.584144	0.803592	0	0
0	0	0	56.071358	3.592013	47.697173	3.592013	9.516091E+13	0.000372	2690.889247	15.621256	0.798666	0	0
0	0	0	55.915771	3.596962	47.489803	3.596962	8.943188E+13	0.000365	2740.46615	15.590456	0.794429	0	0
0	0	0	55.754384	3.601659	47.275616	3.601659	8.384837E+13	0.000357	2798.645637	15.632412	0.789622	0	0
0	0	0	55.59553	3.606217	47.064835	3.606217	7.86885E+13	0.00035	2853.606084	15.591509	0.785464	0	0
0	0	0	55.435206	3.610416	46.852953	3.610416	7.379877E+13	0.000343	2916.411786	15.63387	0.780704	0	0
0	0	0	55.273207	3.614472	46.639206	3.614472	6.916292E+13	0.000335	2981.755806	15.590952	0.776691	0	0
0	0	0	55.109126	3.618418	46.423004	3.618418	6.476099E+13	0.000328	3049.206629	15.636419	0.772109	0	0
0	0	0	54.944023	3.622168	46.205896	3.622168	6.061152E+13	0.00032	3120.679019	15.598126	0.768136	0	0
0	0	0	54.775858	3.625752	45.985239	3.625752	5.665564E+13	0.000313	3198.189984	15.638118	0.763647	0	0
0	0	0	54.605447	3.629154	45.762108	3.629154	5.290786E+13	0.000305	3282.05256	15.598601	0.759707	0	0
0	0	0	54.436996	3.632371	45.541817	3.632371	4.944485E+13	0.000297	3367.52646	15.644831	0.755191	0	0
0	0	0	54.263604	3.63569	45.314963	3.63569	4.611497E+13	0.00029	3450.956157	15.601845	0.751178	0	0
0	0	0	54.090824	3.638639	45.089716	3.638639	4.30183E+13	0.000282	3547.244254	15.640414	0.746947	0	0
0	0	0	53.918371	3.641423	44.865218	3.641423	4.013342E+13	0.000274	3648.289276	15.607605	0.742868	0	0
0	0	0	53.739466	3.644254	44.63239	3.644254	3.734358E+13	0.000266	3752.581665	15.644399	0.738604	0	0
0	0	0	53.56538	3.646817	44.406245	3.646817	3.481405E+13	0.000259	3861.85773	15.61474	0.734551	0	0
0	0	0	53.384637	3.649306	44.171821	3.649306	3.236793E+13	0.000251	3983.09233	15.641828	0.730446	0	0
0	0	0	53.206671	3.651618	43.941286	3.651618	3.012651E+13	0.000243	4109.11948	15.614406	0.726321	0	0
0	0	0	53.02842	3.653945	43.710292	3.653945	2.803632E+13	0.000236	4231.25419	15.633709	0.722314	0	0
0	0	0	52.841061	3.656156	43.468037	3.656156	2.599478E+13	0.000229	4374.863187	15.624367	0.71803	0	0
0	0	0	52.661217	3.658205	43.235628	3.658205	2.41745E+13	0.000221	4516.159799	15.623753	0.714249	0	0
0	0	0	52.470714	3.660125	42.990039	3.660125	2.238463E+13	0.000213	4686.957455	15.626289	0.709971	0	0
0	0	0	52.283111	3.662089	42.747943	3.662089	2.075109E+13	0.000206	4845.83835	15.614929	0.706203	0	0
0	0	0	52.090812	3.663815	42.500485	3.663815	1.91999E+13	0.000198	5037.850079	15.633474	0.701866	0	0
0	0	0	51.896879	3.665619	42.250709	3.665619	1.775258E+13	0.000191	5223.061587	15.609612	0.698269	0	0
0	0	0	51.701108	3.66724	41.999044	3.66724	1.640186E+13	0.000184	5433.789108	15.638565	0.693966	0	0
0	0	0	51.491085	3.668878	41.72928	3.668878	1.506657E+13	0.000176	5674.228995	15.602638	0.690343	0	0
0	0	0	51.290496	3.670512	41.471396	3.670512	1.389262E+13	0.00017	5892.635007	15.637503	0.686164	0	0
0	0	0	51.082515	3.671942	41.204672	3.671942	1.277169E+13	0.000162	6161.300585	15.598244	0.682588	0	0
0	0	0	50.875719	3.673341	40.939486	3.673341	1.174665E+13	0.000155	6434.672793	15.638087	0.678429	0	0
0	0	0	50.669576	3.674744	40.675074	3.674744	1.080658E+13	0.000149	6706.362924	15.594511	0.674965	0	0
0	0	0	50.458573	3.676096	40.404614	3.676096	9.922076E+12	0.000143	7001.684272	15.637671	0.670919	0	0
0	0	0	50.245815	3.677252	40.132435	3.677252	9.10338E+12	0.000136	7349.732808	15.588225	0.667442	0	0
0	0	0	50.030075	3.678434	39.856375	3.678434	8.342065E+12	0.00013	7705.817199	15.631161	0.663422	0	0
0	0	0	49.804984	3.679607	39.568482	3.679607	7.615444E+12	0.000123	8099.514705	15.581441	0.659945	0	0
0	0	0	49.581771	3.680712	39.283113	3.680712	6.957327E+12	0.000117	8512.988083	15.624297	0.65609	0	0
0	0	0	49.355332	3.681806	38.993661	3.681806	6.347722E+12	0.000112	8948.190815	15.583803	0.65254	0	0
0	0	0	49.125953	3.682812	38.700703	3.682812	5.784584E+12	0.000106	9433.307092	15.610047	0.648944	0	0
0	0	0	48.893838	3.683803	38.404294	3.683803	5.26552E+12	0.000101	9945.461254	15.588723	0.645248	0	0
0	0	0	48.656618	3.684763	38.101484	3.684763	4.783093E+12	9.520816E-5	10503.301895	15.607045	0.64179	0	0
0	0	0	48.416662	3.685604	37.795522	3.685604	4.340019E+12	8.972249E-5	11145.478095	15.594011	0.638148	0	0
0	0	0	48.169764	3.686491	37.480617	3.686491	3.926899E+12	8.462389E-5	11816.993381	15.589002	0.634743	0	0
0	0	0	47.9216	3.687358	37.164135	3.687358	3.551257E+12	7.984014E-5	12525.027836	15.601739	0.630981	0	0
0	0	0	47.666453	3.688082	36.839206	3.688082	3.202454E+12	7.469794E-5	13387.249728	15.572164	0.627907	0	0
0	0	0	47.40563	3.688896	36.506805	3.688896	2.881258E+12	7.016084E-5	14252.965039	15.59999	0.624013	0	0
0	0	0	47.140274	3.689622	36.168899	3.689622	2.587505E+12	6.558034E-5	15248.472423	15.563009	0.620946	0	0
0	0	0	46.872181	3.690356	35.827477	3.690356	2.321113E+12	6.136378E-5	16296.258059	15.60525	0.617157	0	0
0	0	0	46.601353	3.691003	35.482829	3.691003	2.07983E+12	5.715308E-5	17496.869899	15.555528	0.614077	0	0
0	0	0	46.323052	3.691777	35.128314	3.691777	1.857984E+12	5.3586E-5	18661.589488	15.595777	0.610487	0	0
0	0	0	46.044832	3.692291	34.774664	3.692291	1.659849E+12	4.949978E-5	20202.110723	15.551112	0.607227	0	0
0	0	0	45.75869	3.692937	34.41056	3.692937	1.478084E+12	4.604883E-5	21716.079342	15.586196	0.60379	0	0
0	0	0	45.471446	3.693545	34.045155	3.693545	1.315631E+12	4.278472E-5	23372.832819	15.552963	0.600458	0	0
0	0	0	45.179995	3.694069	33.674661	3.694069	1.169034E+12	3.951168E-5	25308.974704	15.574766	0.597152	0	0
0	0	0	44.886707	3.694658	33.301614	3.694658	1.037996E+12	3.670587E-5	27243.601994	15.554197	0.59384	0	0
0	0	0	44.594807	3.695106	32.930747	3.695106	9.221623E+11	3.379724E-5	29588.217776	15.552397	0.590726	0	0
0	0	0	44.302866	3.695621	32.559596	3.695621	8.192395E+11	3.133758E-5	31910.570213	15.555724	0.587242	0	0
0	0	0	44.009537	3.696046	32.186953	3.696046	7.273929E+11	2.886584E-5	34643.028638	15.530249	0.58426	0	0
0	0	0	43.719229	3.69661	31.81767	3.69661	6.46634E+11	2.700284E-5	37033.146998	15.550972	0.580796	0	0
0	0	0	43.422266	3.696922	31.440754	3.696922	5.732913E+11	2.465259E-5	40563.687754	15.50751	0.577933	0	0
0	0	0	43.122811	3.697341	31.060322	3.697341	5.077536E+11	2.274442E-5	43966.826369	15.554923	0.57443	0	0
0	0	0	42.817027	3.697776	30.671807	3.697776	4.485549E+11	2.100073E-5	47617.38923	15.505141	0.571461	0	0
0	0	0	42.508588	3.69807	30.28038	3.69807	3.958315E+11	1.911577E-5	52312.83913	15.545138	0.568149	0	0
0	0	0	42.187	3.698539	29.871709	3.698539	3.474477E+11	1.766779E-5	56600.18502	15.495312	0.56528	0	0
0	0	0	41.866147	3.698887	29.464354	3.698887	3.050687E+11	1.614633E-5	61933.587018	15.523059	0.562027	0	0
0	0	0	41.536881	3.699193	29.046474	3.699193	2.669464E+11	1.465563E-5	68233.182195	15.490275	0.558959	0	0
0	0	0	41.2137	3.69958	28.636007	3.69958	2.341648E+11	1.349198E-5	74118.131362	15.502712	0.556024	0	0
0	0	0	40.885742	3.699807	28.220021	3.699807	2.050112E+11	1.216564E-5	82198.711963	15.491783	0.552818	0	0
0	0	0	40.551249	3.700063	27.795654	3.700063	1.790123E+11	1.099256E-5	90970.603941	15.482111	0.550054	0	0
0	0	0	40.210876	3.700428	27.363448	3.700428	1.559382E+11	1.00773E-5	99232.899432	15.502232	0.546709	0	0
0	0	0	39.87279	3.700656	26.9346	3.700656	1.359642E+11	9.083407E-6	110090.849518	15.461363	0.544104	0	0
0	0	0	39.527394	3.700943	26.496278	3.700943	1.181977E+11	8.247198E-6	121253.306565	15.49826	0.540739	0	0
0	0	0	39.178854	3.701223	26.053984	3.701223	1.026219E+11	7.485334E-6	133594.566659	15.443874	0.538134	0	0
0	0	0	38.828149	3.701368	25.609418	3.701368	8.902046E+10	6.649566E-6	150385.763609	15.485355	0.534862	0	0
0	0	0	38.473198	3.701728	25.158696	3.701728	7.708885E+10	6.1232E-6	163313.310951	15.438732	0.532039	0	0
0	0	0	38.111835	3.701956	24.700312	3.701956	6.658315E+10	5.510769E-6	181462.861937	15.46637	0.529123	0	0
0	0	0	37.746061	3.702173	24.236378	3.702173	5.740642E+10	4.947635E-6	202116.761623	15.443603	0.526155	0	0
0	0	0	37.37792	3.702411	23.769351	3.702411	4.944694E+10	4.465193E-6	223954.476989	15.439135	0.523372	0	0
0	0	0	37.007205	3.702588	23.299281	3.702588	4.254664E+10	3.983263E-6	251050.445098	15.443713	0.520245	0	0
0	0	0	36.634571	3.70286	22.826414	3.70286	3.658079E+10	3.630432E-6	275449.30055	15.404409	0.517673	0	0
0	0	0	36.256669	3.70309	22.347023	3.70309	3.138437E+10	3.280693E-6	304813.60737	15.439031	0.514526	0	0
0	0	0	35.874194	3.703254	21.862076	3.703254	2.687622E+10	2.920737E-6	342379.296938	15.388705	0.511961	0	0
0	0	0	35.484695	3.70338	21.368373	3.70338	2.295019E+10	2.57183E-6	388828.207595	15.422289	0.508814	0	0
0	0	0	35.091887	3.703552	20.870295	3.703552	1.95714E+10	2.291332E-6	436427.312772	15.379796	0.506163	0	0
0	0	0	34.697447	3.703742	20.370068	3.703742	1.667899E+10	2.054383E-6	486764.169238	15.402274	0.5033	0	0
0	0	0	34.304109	3.704015	19.870908	3.704015	1.42204E+10	1.892295E-6	528458.815126	15.375436	0.500424	0	0
0	0	0	33.904523	3.704109	19.364518	3.704109	1.209355E+10	1.655404E-6	604082.046783	15.367515	0.497899	0	0
0	0	0	33.499424	3.704275	18.850859	3.704275	1.026183E+10	1.479176E-6	676052.180649	15.372079	0.494871	0	0
0	0	0	33.088363	3.704402	18.329795	3.704402	8.686528E+9	1.305112E-6	766217.635337	15.328829	0.492478	0	0
0	0	0	32.659987	3.704551	17.786705	3.704551	7.301613E+9	1.154547E-6	866140.742811	15.367014	0.489463	0	0
0	0	0	32.239493	3.704666	17.253729	3.704666	6.157142E+9	1.01438E-6	985824.324796	15.314935	0.48703	0	0
0	0	0	31.816793	3.704833	16.717736	3.704833	5.187417E+9	9.104366E-7	1098374.073069	15.346823	0.48426	0	0
0	0	0	31.394951	3.70493	16.183113	3.70493	4.37194E+9	7.971734E-7	1254432.228293	15.311387	0.481609	0	0
0	0	0	30.964697	3.705044	15.637754	3.705044	3.672112E+9	7.021067E-7	1424285.032508	15.326825	0.479051	0	0
0	0	0	30.536974	3.70512	15.095757	3.70512	3.087475E+9	6.09914E-7	1639575.416433	15.316025	0.476267	0	0
0	0	0	30.104352	3.705265	14.547258	3.705265	2.590766E+9	5.465649E-7	1829608.888953	15.292915	0.47396	0	0
0	0	0	29.673035	3.705463	14.00018	3.705463	2.175119E+9	5.058165E-7	1977001.701792	15.317907	0.471071	0	0
0	0	0	29.237717	3.705449	13.448926	3.705449	1.823195E+9	4.20889E-7	2375923.375215	15.265018	0.468797	0	0
0	0	0	28.796192	3.705539	12.889365	3.705539	1.52437E+9	3.689018E-7	2710748.85902	15.296324	0.466007	0	0
0	0	0	28.353728	3.705733	12.328158	3.705733	1.274037E+9	3.441996E-7	2905290.791246	15.241007	0.463706	0	0
0	0	0	27.911631	3.705774	11.768072	3.705774	1.064973E+9	2.949499E-7	3390406.037185	15.264477	0.461187	0	0
0	0	0	27.46835	3.705915	11.206044	3.705915	8.897882E+8	2.69809E-7	3706326.079398	15.24088	0.458523	0	0
0	0	0	27.022128	3.705997	10.640546	3.705997	7.42535E+8	2.382622E-7	4197056.133016	15.227795	0.456163	0	0
0	0	0	26.576234	3.70605	10.075583	3.70605	6.197331E+8	2.066778E-7	4838449.228275	15.240871	0.453571	0	0
0	0	0	26.126133	3.706176	9.504959	3.706176	5.163592E+8	1.900151E-7	5262739.826744	15.191369	0.451423	0	0
0	0	0	25.675664	3.706242	8.934139	3.706242	4.301643E+8	1.672247E-7	5979976.851222	15.227116	0.448686	0	0
0	0	0	25.230546	3.70637	8.369802	3.70637	3.591359E+8	1.570491E-7	6367435.065271	15.184017	0.446378	0	0
0	0	0	24.783058	3.706395	7.802935	3.706395	2.995478E+8	1.341848E-7	7452407.65437	15.206302	0.443932	0	0
0	0	0	24.33553	3.706417	7.236023	3.706417	2.498425E+8	1.144771E-7	8735372.465166	15.182903	0.44144	0	0
0	0	0	23.885511	3.706442	6.665945	3.706442	2.081747E+8	9.782402E-8	1.022244E+7	15.167472	0.439271	0	0
0	0	0	23.430019	3.706562	6.088487	3.706562	1.730716E+8	9.301918E-8	1.075047E+7	15.191164	0.43666	0	0
0	0	0	22.967463	3.706599	5.502467	3.706599	1.434763E+8	8.065011E-8	1.239924E+7	15.135489	0.43467	0	0
0	0	0	22.515362	3.706628	4.929724	3.706628	1.194469E+8	6.962701E-8	1.436224E+7	15.174955	0.432111	0	0
0	0	0	22.067915	3.706724	4.362553	3.706724	9.962984E+7	6.631045E-8	1.508058E+7	15.115682	0.429989	0	0
0	0	0	21.622347	3.706722	3.798227	3.706722	8.316388E+7	5.518506E-8	1.812085E+7	15.140792	0.427622	0	0
0	0	0	21.179678	3.706808	3.237148	3.706808	6.950092E+7	5.278749E-8	1.894388E+7	15.111819	0.425328	0	0
0	0	0	20.741012	3.706804	2.681571	3.706804	5.817696E+7	4.388472E-8	2.278698E+7	15.085255	0.423332	0	0
0	0	0	20.305367	3.706814	2.12975	3.706814	4.875775E+7	3.741936E-8	2.672414E+7	15.110834	0.4208	0	0
0	0	0	19.873234	3.706814	1.582428	3.706814	4.092179E+7	3.140571E-8	3.184134E+7	15.055472	0.418876	0	0
0	0	0	19.441714	3.706867	1.035618	3.706867	3.435369E+7	2.898679E-8	3.449847E+7	15.09129	0.416469	0	0
0	0	0	19.011582	3.706914	0.490594	3.706914	2.885604E+7	2.669646E-8	3.745815E+7	15.052192	0.414387	0	0
0	0	0	18.587903	3.70701	-0.046507	3.70701	2.430167E+7	2.800208E-8	3.571163E+7	15.058285	0.412271	0	0
0	0	0	18.165652	3.707092	-0.581732	3.707092	2.047798E+7	2.982779E-8	3.352578E+7	15.062785	0.409872	0	0
