Vload_(V)	ILoad_(A)	RsLoad (ohm)	SunsVoc_Voltage_(V)	SunsVoc_Current_(A)	Model_Voltage_(V)	Model_Current_(A)	Carrier_Density_(cm-3)	Lifetime_(s)	Inverse_Lifetime_(s-1)	Efficiency_(%)	Intensity_(suns)	Dark_IV_Voltage_(V)	Dark_IV_Current_(A)
4.289823	3.850424	0	63.983881	-0.520167	64.609435	-0.520167	1.814995E+15	0.000187	5338.473364	15.494052	1.116952	0	0
4.823749	3.848245	6.662065	63.984453	-0.38826	64.451359	-0.38826	1.815334E+15	0.000193	5176.220497	15.488971	1.116707	0	0
9.341764	3.833485	9.385533	63.85496	-0.148899	64.035456	-0.148899	1.739935E+15	0.000196	5095.919806	15.494051	1.114671	0	0
13.677143	3.828412	8.637349	63.676464	0.125009	63.523266	0.125009	1.640402E+15	0.000198	5035.42878	15.474525	1.111974	0	0
17.999621	3.816813	8.068625	63.483756	0.384689	63.006804	0.384689	1.538469E+15	0.0002	4995.307766	15.509672	1.109792	0	0
22.311727	3.805523	7.292737	63.295254	0.620482	62.517248	0.620482	1.444092E+15	0.000201	4960.141254	15.48676	1.108728	0	0
26.645511	3.803984	6.193282	63.108631	0.837636	62.046702	0.837636	1.355635E+15	0.000203	4928.946467	15.52571	1.107214	0	0
30.961212	3.798756	5.18133	62.919639	1.035183	61.592701	1.035183	1.270897E+15	0.000203	4913.210516	15.475011	1.105726	0	0
35.285127	3.794547	4.132788	62.743633	1.215937	61.169064	1.215937	1.196182E+15	0.000205	4885.227549	15.509974	1.102824	0	0
39.586842	3.789968	3.085471	62.562196	1.385634	60.749161	1.385634	1.123225E+15	0.000205	4867.693944	15.486998	1.099598	0	0
43.895812	3.764036	2.319624	62.382434	1.545521	60.33951	1.545521	1.054841E+15	0.000206	4847.271019	15.512906	1.095056	0	0
45.322115	3.74619	2.128341	62.197893	1.699437	59.928168	1.699437	9.885019E+14	0.000207	4827.379578	15.501442	1.091175	0	0
46.747226	3.716415	1.992396	62.009147	1.844141	59.520243	1.844141	9.245188E+14	0.000208	4814.438645	15.511677	1.087215	0	0
48.170476	3.673717	1.873533	61.826158	1.974517	59.134394	1.974517	8.660511E+14	0.000208	4805.652851	15.524814	1.083995	0	0
49.594726	3.606648	1.786375	61.644925	2.094684	58.761079	2.094684	8.114422E+14	0.000208	4800.657972	15.509554	1.080306	0	0
51.019526	3.51015	1.710979	61.46406	2.205762	58.397585	2.205762	7.600633E+14	0.000208	4801.061665	15.537019	1.075817	0	0
52.446263	3.37183	1.647916	61.29128	2.307182	58.054131	2.307182	7.13756E+14	0.000208	4797.388885	15.500497	1.070879	0	0
53.865359	3.181197	1.597361	61.113151	2.401507	57.711808	2.401507	6.687192E+14	0.000208	4807.617052	15.548863	1.065239	0	0
55.257165	2.933623	1.554147	60.938983	2.488728	57.381832	2.488728	6.272126E+14	0.000208	4817.297641	15.521335	1.06038	0	0
56.643315	2.624068	1.518559	60.769797	2.569939	57.064199	2.569939	5.891723E+14	0.000207	4822.556103	15.55787	1.054952	0	0
58.008968	2.250364	1.485425	60.600284	2.646962	56.75022	2.646962	5.53203E+14	0.000207	4827.243077	15.5334	1.050391	0	0
59.351121	1.819347	1.460474	60.424483	2.719056	56.433967	2.719056	5.180555E+14	0.000206	4846.014837	15.557253	1.045234	0	0
60.673038	1.33765	1.453141	60.257624	2.786063	56.134157	2.786063	4.866264E+14	0.000206	4853.501231	15.552639	1.040236	0	0
61.940598	0.823729	1.472541	60.091501	2.848883	55.839822	2.848883	4.571102E+14	0.000206	4861.989375	15.555582	1.034405	0	0
63.037845	0.345695	1.465594	59.922111	2.907147	55.546814	2.907147	4.287452E+14	0.000205	4882.135926	15.573175	1.028514	0	0
50.345401	3.557772	1.753529	59.758846	2.961833	55.265243	2.961833	4.029774E+14	0.000204	4893.213783	15.557321	1.022492	0	0
63.774426	0	0	59.594357	3.012721	54.986652	3.012721	3.784968E+14	0.000204	4911.382603	15.592784	1.016502	0	0
0	0	0	59.433134	3.060143	54.716168	3.060143	3.558714E+14	0.000203	4927.954621	15.566415	1.010975	0	0
0	0	0	59.26701	3.105203	54.442182	3.105203	3.339027E+14	0.000202	4952.742511	15.608175	1.00521	0	0
0	0	0	59.107503	3.146393	54.181309	3.146393	3.140265E+14	0.000201	4975.174228	15.574239	0.999478	0	0
0	0	0	58.952324	3.185022	53.928852	3.185022	2.957753E+14	0.0002	4992.370497	15.619281	0.99327	0	0
0	0	0	58.793878	3.220892	53.675834	3.220892	2.781878E+14	0.000199	5021.86816	15.584549	0.987519	0	0
0	0	0	58.640945	3.254623	53.432245	3.254623	2.621651E+14	0.000198	5043.288315	15.63089	0.980921	0	0
0	0	0	58.485398	3.286507	53.18761	3.286507	2.467789E+14	0.000197	5071.025696	15.601612	0.975434	0	0
0	0	0	58.335079	3.316336	52.952091	3.316336	2.327374E+14	0.000196	5092.561742	15.625519	0.969417	0	0
0	0	0	58.1799	3.344192	52.713059	3.344192	2.190509E+14	0.000195	5128.548107	15.619819	0.964029	0	0
0	0	0	58.032643	3.370123	52.486463	3.370123	2.06784E+14	0.000194	5154.511115	15.627487	0.958132	0	0
0	0	0	57.880772	3.394597	52.255931	3.394597	1.948296E+14	0.000193	5192.020667	15.639401	0.952493	0	0
0	0	0	57.733433	3.417962	52.032383	3.417962	1.838736E+14	0.000192	5219.400565	15.627525	0.946464	0	0
0	0	0	57.580745	3.439958	51.803901	3.439958	1.731514E+14	0.00019	5260.706261	15.66174	0.940639	0	0
0	0	0	57.434101	3.46074	51.584572	3.46074	1.634273E+14	0.000189	5291.531867	15.634488	0.935198	0	0
0	0	0	57.282148	3.480236	51.360292	3.480236	1.539125E+14	0.000187	5337.5506	15.672278	0.929433	0	0
0	0	0	57.136525	3.498757	51.145221	3.498757	1.45302E+14	0.000186	5370.990579	15.63671	0.924329	0	0
0	0	0	56.984817	3.516179	50.923964	3.516179	1.368323E+14	0.000184	5420.894786	15.684086	0.91871	0	0
0	0	0	56.83609	3.532547	50.707907	3.532547	1.289983E+14	0.000183	5468.519447	15.649563	0.913606	0	0
0	0	0	56.689895	3.547977	50.496326	3.547977	1.217262E+14	0.000181	5513.916398	15.688682	0.908013	0	0
0	0	0	56.545007	3.562652	50.287388	3.562652	1.14916E+14	0.00018	5557.283503	15.657423	0.903002	0	0
0	0	0	56.39579	3.576675	50.073804	3.576675	1.082933E+14	0.000178	5609.778904	15.690334	0.897224	0	0
0	0	0	56.251678	3.589896	49.867806	3.589896	1.022535E+14	0.000177	5654.208915	15.675255	0.892312	0	0
0	0	0	56.104176	3.602766	49.657851	3.602766	9.641468E+13	0.000175	5700.386536	15.6888	0.886851	0	0
0	0	0	55.960431	3.614555	49.45433	3.614555	9.104068E+13	0.000174	5749.522309	15.68765	0.881972	0	0
0	0	0	55.809989	3.625734	49.243154	3.625734	8.573221E+13	0.000172	5816.145377	15.685007	0.876776	0	0
0	0	0	55.668449	3.636228	49.04429	3.636228	8.101695E+13	0.00017	5867.213956	15.70158	0.871625	0	0
0	0	0	55.522459	3.646061	48.840754	3.646061	7.642145E+13	0.000169	5934.469894	15.687229	0.866489	0	0
0	0	0	55.377856	3.655579	48.639353	3.655579	7.212355E+13	0.000167	5995.24798	15.715401	0.861299	0	0
0	0	0	55.228966	3.664504	48.43339	3.664504	6.794772E+13	0.000165	6072.218655	15.687785	0.856327	0	0
0	0	0	55.083506	3.672883	48.232614	3.672883	6.409916E+13	0.000163	6146.705442	15.724457	0.851164	0	0
0	0	0	54.935473	3.680928	48.029007	3.680928	6.040396E+13	0.000161	6227.172529	15.688977	0.84649	0	0
0	0	0	54.788584	3.688526	47.827522	3.688526	5.694585E+13	0.000158	6309.214429	15.732106	0.841353	0	0
0	0	0	54.637448	3.695885	47.62091	3.695885	5.35924E+13	0.000156	6399.294359	15.692231	0.836666	0	0
0	0	0	54.487251	3.702777	47.416221	3.702777	5.045378E+13	0.000154	6494.208266	15.733966	0.831509	0	0
0	0	0	54.335053	3.709324	47.209489	3.709324	4.745927E+13	0.000152	6597.857503	15.695316	0.826894	0	0
0	0	0	54.187633	3.71552	47.009384	3.71552	4.472703E+13	0.000149	6693.442634	15.741673	0.821771	0	0
0	0	0	54.03568	3.721423	46.803925	3.721423	4.207411E+13	0.000147	6804.146991	15.705263	0.817493	0	0
0	0	0	53.887198	3.727048	46.603311	3.727048	3.963284E+13	0.000145	6908.30371	15.741321	0.812654	0	0
0	0	0	53.733939	3.732376	46.39705	3.732376	3.726052E+13	0.000142	7030.836226	15.708144	0.808469	0	0
0	0	0	53.58317	3.73742	46.194412	3.73742	3.506453E+13	0.00014	7151.898547	15.738226	0.80355	0	0
0	0	0	53.432932	3.742267	45.992733	3.742267	3.300429E+13	0.000138	7272.461171	15.718063	0.799405	0	0
0	0	0	53.283307	3.746959	45.792037	3.746959	3.107213E+13	0.000135	7389.551153	15.739981	0.794506	0	0
0	0	0	53.131721	3.751275	45.589485	3.751275	2.922939E+13	0.000133	7527.708431	15.725871	0.790302	0	0
0	0	0	52.980994	3.755438	45.388245	3.755438	2.750493E+13	0.00013	7663.835601	15.735491	0.785522	0	0
0	0	0	52.829	3.759331	45.185838	3.759331	2.586854E+13	0.000128	7814.675312	15.732446	0.781284	0	0
0	0	0	52.676189	3.763201	44.982343	3.763201	2.432107E+13	0.000126	7958.712172	15.728643	0.77661	0	0
0	0	0	52.523175	3.766821	44.779014	3.766821	2.286392E+13	0.000123	8114.566102	15.743463	0.772227	0	0
0	0	0	52.368363	3.770303	44.573588	3.770303	2.147815E+13	0.000121	8278.371357	15.72411	0.767718	0	0
0	0	0	52.213102	3.773567	44.367957	3.773567	2.017242E+13	0.000118	8455.122172	15.749708	0.763269	0	0
0	0	0	52.054656	3.77674	44.158363	3.77674	1.892143E+13	0.000116	8642.072048	15.721414	0.758958	0	0
0	0	0	51.898701	3.77974	43.952247	3.77974	1.776567E+13	0.000113	8829.503028	15.751092	0.754575	0	0
0	0	0	51.735355	3.782677	43.736722	3.782677	1.663053E+13	0.000111	9040.18383	15.720611	0.75039	0	0
0	0	0	51.565638	3.78547	43.513267	3.78547	1.552767E+13	0.000108	9283.137647	15.754031	0.74606	0	0
0	0	0	51.403476	3.788211	43.299536	3.788211	1.454213E+13	0.000105	9493.915757	15.719464	0.741915	0	0
0	0	0	51.242743	3.790622	43.088285	3.790622	1.362687E+13	0.000103	9739.059463	15.754311	0.737551	0	0
0	0	0	51.070372	3.793157	42.86178	3.793157	1.270911E+13	0.0001	9999.654653	15.717105	0.733492	0	0
0	0	0	50.907271	3.795552	42.647405	3.795552	1.189757E+13	9.770395E-5	10235.000446	15.754807	0.729215	0	0
0	0	0	50.741433	3.797686	42.430032	3.797686	1.112542E+13	9.506077E-5	10519.586853	15.711964	0.725367	0	0
0	0	0	50.569838	3.799865	42.205123	3.799865	1.037909E+13	9.25042E-5	10810.319763	15.751842	0.720891	0	0
0	0	0	50.405879	3.801881	41.990316	3.801881	9.712705E+12	9.016041E-5	11091.34232	15.71335	0.71711	0	0
0	0	0	50.234488	3.803761	41.766225	3.803761	9.061737E+12	8.750676E-5	11427.688912	15.747925	0.71266	0	0
0	0	0	50.059626	3.805658	41.537592	3.805658	8.442463E+12	8.498242E-5	11767.139418	15.713729	0.708998	0	0
0	0	0	49.882477	3.807579	41.305923	3.807579	7.858172E+12	8.264694E-5	12099.661456	15.749295	0.704654	0	0
0	0	0	49.708676	3.809222	41.079129	3.809222	7.324192E+12	8.010326E-5	12483.886521	15.712146	0.700926	0	0
0	0	0	49.532507	3.810863	40.849259	3.810863	6.819909E+12	7.768115E-5	12873.136394	15.743652	0.696642	0	0
0	0	0	49.356175	3.812443	40.619276	3.812443	6.349889E+12	7.533559E-5	13273.937871	15.712049	0.692953	0	0
0	0	0	49.177474	3.813898	40.386497	3.813898	5.906559E+12	7.286778E-5	13723.485697	15.736846	0.688781	0	0
0	0	0	48.999834	3.815363	40.15502	3.815363	5.496515E+12	7.064207E-5	14155.871101	15.712347	0.685204	0	0
0	0	0	48.818316	3.816736	39.918736	3.816736	5.10688E+12	6.831016E-5	14639.111475	15.729597	0.681039	0	0
0	0	0	48.638921	3.818009	39.685378	3.818009	4.748925E+12	6.601642E-5	15147.745553	15.710828	0.677383	0	0
0	0	0	48.454094	3.819331	39.444893	3.819331	4.406335E+12	6.385868E-5	15659.579379	15.727384	0.673291	0	0
0	0	0	48.269758	3.820512	39.205337	3.820512	4.089254E+12	6.160347E-5	16232.851304	15.703808	0.669807	0	0
0	0	0	48.084319	3.821749	38.964198	3.821749	3.79328E+12	5.960967E-5	16775.801879	15.723176	0.665649	0	0
0	0	0	47.893408	3.8228	38.716443	3.8228	3.510922E+12	5.727098E-5	17460.849184	15.701237	0.662244	0	0
0	0	0	47.702619	3.823815	38.4689	3.823815	3.249731E+12	5.503309E-5	18170.885158	15.711441	0.658158	0	0
0	0	0	47.508401	3.824889	38.216779	3.824889	3.003783E+12	5.300783E-5	18865.136519	15.700027	0.654648	0	0
0	0	0	47.311487	3.825847	37.961449	3.825847	2.773408E+12	5.084929E-5	19665.95779	15.701706	0.650747	0	0
0	0	0	47.113307	3.82675	37.704598	3.82675	2.559381E+12	4.871508E-5	20527.525115	15.695688	0.647171	0	0
0	0	0	46.914514	3.827664	37.446904	3.827664	2.361278E+12	4.675085E-5	21389.985945	15.697461	0.643283	0	0
0	0	0	46.712659	3.828576	37.185256	3.828576	2.1758E+12	4.487564E-5	22283.803037	15.68827	0.639799	0	0
0	0	0	46.505944	3.829463	36.917395	3.829463	2.000941E+12	4.301667E-5	23246.800951	15.685437	0.636084	0	0
0	0	0	46.298617	3.830317	36.648803	3.830317	1.839674E+12	4.122981E-5	24254.293376	15.681978	0.632712	0	0
0	0	0	46.089983	3.831079	36.37874	3.831079	1.690505E+12	3.937885E-5	25394.34536	15.685038	0.628891	0	0
0	0	0	45.874651	3.831739	36.100305	3.831739	1.549216E+12	3.736213E-5	26765.067813	15.679411	0.625592	0	0
0	0	0	45.657768	3.832506	35.81958	3.832506	1.418841E+12	3.56826E-5	28024.865214	15.674922	0.621962	0	0
0	0	0	45.437169	3.833177	35.5343	3.833177	1.297479E+12	3.390038E-5	29498.19276	15.672469	0.618498	0	0
0	0	0	45.212159	3.833878	35.243253	3.833878	1.184376E+12	3.225585E-5	31002.124657	15.668336	0.614888	0	0
0	0	0	44.98278	3.834436	34.946938	3.834436	1.079218E+12	3.041781E-5	32875.481128	15.667269	0.611543	0	0
0	0	0	44.749726	3.835093	34.645619	3.835093	9.819303E+11	2.886218E-5	34647.416013	15.668218	0.607914	0	0
0	0	0	44.51418	3.835768	34.341027	3.835768	8.925101E+11	2.744231E-5	36440.087294	15.658426	0.604674	0	0
0	0	0	44.276266	3.83633	34.033668	3.83633	8.104533E+11	2.591297E-5	38590.71869	15.654739	0.601064	0	0
0	0	0	44.033289	3.836826	33.719956	3.836826	7.344306E+11	2.433857E-5	41087.050076	15.6458	0.597832	0	0
0	0	0	43.788759	3.837412	33.403988	3.837412	6.651197E+11	2.303436E-5	43413.404423	15.650194	0.594262	0	0
0	0	0	43.535736	3.837941	33.077232	3.837941	6.002786E+11	2.166955E-5	46147.694846	15.637875	0.591207	0	0
0	0	0	43.280384	3.838411	32.747625	3.838411	5.412472E+11	2.030343E-5	49252.753081	15.644291	0.587604	0	0
0	0	0	43.020623	3.838812	32.412522	3.838812	4.871487E+11	1.890413E-5	52898.49043	15.625802	0.58455	0	0
0	0	0	42.74959	3.839284	32.062711	3.839284	4.364581E+11	1.765538E-5	56639.973153	15.63205	0.581006	0	0
0	0	0	42.479456	3.839816	31.713869	3.839816	3.911842E+11	1.661712E-5	60178.910017	15.616652	0.577998	0	0
0	0	0	42.188455	3.840189	31.33862	3.840189	3.476528E+11	1.530622E-5	65332.916168	15.625398	0.574494	0	0
0	0	0	41.904681	3.840622	30.972478	3.840622	3.09872E+11	1.424611E-5	70194.587327	15.60851	0.57144	0	0
0	0	0	41.608289	3.841123	30.589897	3.841123	2.747875E+11	1.331378E-5	75110.122166	15.61829	0.568062	0	0
0	0	0	41.316757	3.841437	30.214084	3.841437	2.441557E+11	1.224265E-5	81681.660414	15.592844	0.565001	0	0
0	0	0	41.019548	3.841853	29.830662	3.841853	2.164398E+11	1.137886E-5	87882.270112	15.610934	0.561543	0	0
0	0	0	40.713927	3.842228	29.436521	3.842228	1.912167E+11	1.051268E-5	95123.192668	15.58336	0.558793	0	0
0	0	0	40.403569	3.842623	29.036209	3.842623	1.686089E+11	9.74025E-6	102666.771371	15.601979	0.555309	0	0
0	0	0	40.092721	3.842862	28.635718	3.842862	1.486444E+11	8.85786E-6	112894.078745	15.568092	0.552539	0	0
0	0	0	39.777258	3.843196	28.228994	3.843196	1.307988E+11	8.154404E-6	122633.122144	15.597828	0.549094	0	0
0	0	0	39.460693	3.843506	27.820908	3.843506	1.150442E+11	7.493794E-6	133443.753412	15.55192	0.54639	0	0
0	0	0	39.14617	3.843858	27.415306	3.843858	1.01271E+11	6.950588E-6	143872.720284	15.584628	0.542926	0	0
0	0	0	38.830054	3.844092	27.008004	3.844092	8.908922E+10	6.339755E-6	157734.798938	15.54115	0.540202	0	0
0	0	0	38.516756	3.844337	26.604277	3.844337	7.84623E+10	5.80893E-6	172148.756891	15.576654	0.536923	0	0
0	0	0	38.204846	3.844608	26.202246	3.844608	6.91419E+10	5.357367E-6	186658.84692	15.530787	0.534094	0	0
0	0	0	37.895468	3.844845	25.803566	3.844845	6.099122E+10	4.926393E-6	202988.267668	15.561374	0.5309	0	0
0	0	0	37.589887	3.845062	25.409821	3.845062	5.388426E+10	4.528883E-6	220804.994683	15.517052	0.528117	0	0
0	0	0	37.28443	3.845326	25.016076	3.845326	4.760779E+10	4.208577E-6	237610.032586	15.552114	0.524871	0	0
0	0	0	36.979585	3.845471	24.623489	3.845471	4.207285E+10	3.828218E-6	261218.167471	15.5002	0.522134	0	0
0	0	0	36.676414	3.845676	24.232857	3.845676	3.720666E+10	3.531141E-6	283194.612946	15.53344	0.518987	0	0
0	0	0	36.367322	3.845797	23.834868	3.845797	3.282439E+10	3.19709E-6	312784.397356	15.488737	0.516217	0	0
0	0	0	36.056719	3.846061	23.434465	3.846061	2.894054E+10	2.989125E-6	334546.048531	15.529108	0.51311	0	0
0	0	0	35.741378	3.846269	23.028138	3.846269	2.546727E+10	2.76235E-6	362010.57063	15.475404	0.510459	0	0
0	0	0	35.422363	3.846319	22.617603	3.846319	2.237748E+10	2.456338E-6	407110.081104	15.50508	0.507451	0	0
0	0	0	35.102122	3.846557	22.204857	3.846557	1.965278E+10	2.290021E-6	436677.271813	15.464837	0.504747	0	0
0	0	0	34.77641	3.846661	21.785512	3.846661	1.72216E+10	2.06236E-6	484881.422238	15.489481	0.501851	0	0
0	0	0	34.450983	3.846808	21.366385	3.846808	1.509291E+10	1.88076E-6	531699.878296	15.449945	0.499187	0	0
0	0	0	34.120248	3.846954	20.940423	3.846954	1.319891E+10	1.714262E-6	583341.418695	15.467685	0.49643	0	0
0	0	0	33.784734	3.847065	20.508431	3.847065	1.152024E+10	1.545489E-6	647044.574563	15.441399	0.493666	0	0
0	0	0	33.442564	3.847313	20.067391	3.847313	1.002797E+10	1.452742E-6	688353.376555	15.448332	0.491075	0	0
0	0	0	33.095453	3.847409	19.620517	3.847409	8.711536E+9	1.302085E-6	767998.839282	15.427198	0.488258	0	0
0	0	0	32.730905	3.847587	19.150914	3.847587	7.514601E+9	1.19383E-6	837640.4872	15.422978	0.485766	0	0
0	0	0	32.370971	3.847672	18.68757	3.847672	6.49426E+9	1.063615E-6	940189.989391	15.416278	0.482864	0	0
0	0	0	32.006423	3.847704	18.218474	3.847704	5.601971E+9	9.28266E-7	1077277.472571	15.404935	0.480424	0	0
0	0	0	31.641262	3.847908	17.747969	3.847908	4.831079E+9	8.653749E-7	1155568.568088	15.401429	0.477648	0	0
0	0	0	31.271038	3.848002	17.271339	3.848002	4.157726E+9	7.734959E-7	1292831.669086	15.376425	0.475307	0	0
0	0	0	30.895096	3.848178	16.787046	3.848178	3.569939E+9	7.162411E-7	1396177.816413	15.392421	0.472471	0	0
0	0	0	30.517276	3.848216	16.300836	3.848216	3.062916E+9	6.251707E-7	1599563.160517	15.351584	0.47023	0	0
0	0	0	30.136883	3.848382	15.81084	3.848382	2.625164E+9	5.792561E-7	1726352.116866	15.38468	0.467394	0	0
0	0	0	29.750978	3.848452	15.3141	3.848452	2.244951E+9	5.129621E-7	1949461.695683	15.336426	0.465258	0	0
0	0	0	29.361111	3.848479	14.812421	3.848479	1.916726E+9	4.441895E-7	2251291.618326	15.368599	0.462482	0	0
0	0	0	28.968304	3.8486	14.306601	3.8486	1.634539E+9	4.039238E-7	2475714.62453	15.313111	0.460267	0	0
0	0	0	28.568023	3.848717	13.791176	3.848717	1.38968E+9	3.669E-7	2725538.621398	15.352825	0.457622	0	0
0	0	0	28.169581	3.848772	13.278347	3.848772	1.182382E+9	3.226023E-7	3099792.099943	15.301689	0.455348	0	0
0	0	0	27.765258	3.848821	12.757974	3.848821	1.003611E+9	2.82168E-7	3543987.627995	15.330878	0.452856	0	0
0	0	0	27.361343	3.848965	12.237748	3.848965	8.520108E+8	2.632424E-7	3798780.108084	15.292508	0.450568	0	0
0	0	0	26.951384	3.849008	11.71014	3.849008	7.215401E+8	2.29615E-7	4355115.320354	15.304088	0.448149	0	0
0	0	0	26.537669	3.849103	11.177485	3.849103	6.101187E+8	2.081964E-7	4803157.985982	15.282734	0.44565	0	0
0	0	0	26.119666	3.849178	10.639393	3.849178	5.150071E+8	1.862131E-7	5370190.511072	15.284461	0.443316	0	0
0	0	0	25.700437	3.849279	10.099608	3.849279	4.345066E+8	1.710869E-7	5844983.600135	15.276735	0.440777	0	0
0	0	0	25.281086	3.849248	9.560205	3.849248	3.665708E+8	1.404342E-7	7120771.509293	15.251591	0.438708	0	0
0	0	0	24.859489	3.849383	9.017225	3.849383	3.089755E+8	1.338162E-7	7472937.388948	15.266911	0.436063	0	0
0	0	0	24.433686	3.8494	8.469317	3.8494	2.599857E+8	1.14467E-7	8736138.587404	15.22486	0.434001	0	0
0	0	0	24.004004	3.849462	7.91623	3.849462	2.184197E+8	1.023172E-7	9773523.393118	15.256403	0.431429	0	0
0	0	0	23.569094	3.849536	7.356361	3.849536	1.831108E+8	9.295217E-8	1.075822E+7	15.204133	0.429399	0	0
0	0	0	23.118258	3.849646	6.775842	3.849646	1.525217E+8	8.841147E-8	1.131075E+7	15.244084	0.426887	0	0
0	0	0	22.672772	3.849723	6.202345	3.849723	1.273184E+8	8.18427E-8	1.221856E+7	15.183049	0.424851	0	0
0	0	0	22.235412	3.849685	5.639792	3.849685	1.066306E+8	6.500379E-8	1.538372E+7	15.216302	0.422431	0	0
0	0	0	21.793029	3.849823	5.070014	3.849823	8.912264E+7	6.678998E-8	1.497231E+7	15.175134	0.420263	0	0
0	0	0	21.347012	3.849772	4.496377	3.849772	7.437968E+7	5.139035E-8	1.945891E+7	15.178679	0.418094	0	0
0	0	0	20.900055	3.84985	3.920965	3.84985	6.205191E+7	4.873852E-8	2.051765E+7	15.157342	0.4158	0	0
0	0	0	20.450935	3.849856	3.343083	3.849856	5.172195E+7	4.108074E-8	2.434231E+7	15.149978	0.413738	0	0
0	0	0	19.999323	3.849973	2.761502	3.849973	4.306813E+7	4.306346E-8	2.322154E+7	15.152071	0.411311	0	0
