Vload_(V)	ILoad_(A)	RsLoad (ohm)	SunsVoc_Voltage_(V)	SunsVoc_Current_(A)	Model_Voltage_(V)	Model_Current_(A)	Carrier_Density_(cm-3)	Lifetime_(s)	Inverse_Lifetime_(s-1)	Efficiency_(%)	Intensity_(suns)	Dark_IV_Voltage_(V)	Dark_IV_Current_(A)
4.454484	9.7791	0	39.613172	-1.041	39.922347	-1.041	8.079844E+14	5.240874E-5	19079.703338	17.904739	1.114182	0	0
4.456321	9.779924	-0.465014	39.561571	-0.634764	39.75013	-0.634764	7.828724E+14	5.276076E-5	18952.461137	17.882575	1.113627	0	0
4.50859	9.781557	-0.470289	39.471501	-0.052355	39.487059	-0.052355	7.408024E+14	5.288307E-5	18908.733518	17.871723	1.111132	0	0
5.270376	9.777677	1.527361	39.363252	0.568508	39.194251	0.568508	6.930803E+14	5.281145E-5	18934.492084	17.819705	1.107831	0	0
7.599859	9.775632	1.654078	39.253679	1.1784	38.903233	1.1784	6.477654E+14	5.285864E-5	18917.687174	17.875793	1.10519	0	0
10.151091	9.776916	1.21861	39.141918	1.750176	38.621216	1.750176	6.044678E+14	5.283818E-5	18925.101495	17.888078	1.103672	0	0
12.612212	9.77325	1.31809	39.031299	2.28877	38.350081	2.28877	5.643509E+14	5.287864E-5	18910.700551	17.874657	1.102167	0	0
15.019679	9.774449	0.996444	38.92122	2.784369	38.092159	2.784369	5.269741E+14	5.287498E-5	18912.07472	17.86806	1.100253	0	0
17.431322	9.766973	1.031993	38.813951	3.229906	37.851849	3.229906	4.928503E+14	5.281523E-5	18933.529752	17.835919	1.098153	0	0
19.820724	9.749858	0.987689	38.705799	3.651083	37.617807	3.651083	4.606084E+14	5.275261E-5	18956.057469	17.885015	1.094734	0	0
22.232412	9.747622	0.755718	38.599036	4.044248	37.393411	4.044248	4.307853E+14	5.271942E-5	18968.033978	17.852542	1.090588	0	0
24.629907	9.744185	0.530693	38.491146	4.416927	37.173901	4.416927	4.025509E+14	5.268803E-5	18979.372294	17.865558	1.086112	0	0
27.022757	9.738512	0.314659	38.383223	4.765287	36.961524	4.765287	3.761082E+14	5.264737E-5	18994.065764	17.857341	1.082296	0	0
27.920803	9.726999	0.271457	38.274989	5.087372	36.756596	5.087372	3.512886E+14	5.254886E-5	19029.702838	17.875963	1.078983	0	0
28.827068	9.689616	0.282112	38.168716	5.384311	36.561071	5.384311	3.284739E+14	5.245596E-5	19063.430228	17.892235	1.075325	0	0
29.710739	9.625128	0.292611	38.063685	5.658573	36.373499	5.658573	3.073486E+14	5.234925E-5	19102.312108	17.85754	1.07077	0	0
30.600456	9.513006	0.301408	37.9596	5.915809	36.191906	5.915809	2.877254E+14	5.227004E-5	19131.280168	17.875384	1.065766	0	0
31.476829	9.34542	0.302121	37.854993	6.155647	36.014928	6.155647	2.692403E+14	5.214942E-5	19175.54906	17.852994	1.060115	0	0
32.335907	9.089778	0.30251	37.751138	6.377357	35.844073	6.377357	2.520406E+14	5.199973E-5	19230.765428	17.894397	1.054517	0	0
33.199778	8.709541	0.301148	37.648475	6.583719	35.67896	6.583719	2.360992E+14	5.185658E-5	19283.864989	17.877363	1.048787	0	0
34.037187	8.18632	0.299052	37.546889	6.774445	35.519566	6.774445	2.213011E+14	5.169172E-5	19345.377706	17.878555	1.043427	0	0
34.865527	7.480105	0.297268	37.445517	6.953803	35.363747	6.953803	2.07444E+14	5.153102E-5	19405.716144	17.900256	1.038185	0	0
35.667112	6.612939	0.294703	37.344699	7.120876	35.212127	7.120876	1.945105E+14	5.135509E-5	19472.202502	17.8777	1.032812	0	0
36.447391	5.579174	0.292381	37.245744	7.276699	35.065717	7.276699	1.825894E+14	5.120952E-5	19527.562026	17.909539	1.026725	0	0
37.188344	4.426741	0.289546	37.146903	7.423428	34.922114	7.423428	1.714018E+14	5.10661E-5	19582.414394	17.868719	1.020506	0	0
37.894701	3.177949	0.294281	37.04754	7.559354	34.781191	7.559354	1.608373E+14	5.085289E-5	19664.523541	17.909123	1.014024	0	0
38.539041	1.929852	0.305804	36.948829	7.687808	34.643139	7.687808	1.509796E+14	5.066821E-5	19736.204588	17.899776	1.008096	0	0
39.051635	0.872733	0.322759	36.850462	7.807874	34.507921	7.807874	1.417506E+14	5.04685E-5	19814.307034	17.911151	1.002181	0	0
31.845481	9.248545	0.302439	36.754088	7.918311	34.377578	7.918311	1.332502E+14	5.025768E-5	19897.426287	17.91666	0.99649	0	0
39.464042	0	0	36.658187	8.021715	34.2498	8.021715	1.252926E+14	5.003692E-5	19985.2176	17.902382	0.990813	0	0
0	0	0	36.56441	8.117984	34.126286	8.117984	1.179668E+14	4.984161E-5	20063.536156	17.937094	0.984872	0	0
0	0	0	36.470894	8.208724	34.004677	8.208724	1.110843E+14	4.964564E-5	20142.73615	17.903956	0.978904	0	0
0	0	0	36.378277	8.293551	33.885734	8.293551	1.046605E+14	4.944561E-5	20224.223351	17.939421	0.972698	0	0
0	0	0	36.286427	8.373645	33.768971	8.373645	9.865403E+13	4.926403E-5	20298.771759	17.916079	0.966902	0	0
0	0	0	36.195427	8.448069	33.654754	8.448069	9.304063E+13	4.905875E-5	20383.70824	17.939783	0.960842	0	0
0	0	0	36.10544	8.520865	33.542034	8.520865	8.780168E+13	4.897482E-5	20418.643419	17.939805	0.955548	0	0
0	0	0	36.015207	8.587668	33.430856	8.587668	8.284271E+13	4.879968E-5	20491.926951	17.927328	0.950002	0	0
0	0	0	35.924305	8.650019	33.320329	8.650019	7.812836E+13	4.856412E-5	20591.322223	17.954257	0.944404	0	0
0	0	0	35.833909	8.709374	33.211204	8.709374	7.370479E+13	4.835651E-5	20679.731134	17.922343	0.938806	0	0
0	0	0	35.746355	8.76387	33.106399	8.76387	6.96579E+13	4.81546E-5	20766.438502	17.959296	0.933182	0	0
0	0	0	35.657593	8.816368	33.000966	8.816368	6.578073E+13	4.795403E-5	20853.299211	17.930111	0.927874	0	0
0	0	0	35.568144	8.864928	32.896017	8.864928	6.20908E+13	4.766846E-5	20978.225038	17.949887	0.922263	0	0
0	0	0	35.480934	8.911073	32.794046	8.911073	5.869162E+13	4.745419E-5	21072.94904	17.948529	0.91718	0	0
0	0	0	35.392841	8.954594	32.691967	8.954594	5.544613E+13	4.719646E-5	21188.022925	17.94381	0.911806	0	0
0	0	0	35.307558	8.995838	32.593404	8.995838	5.24745E+13	4.7019E-5	21267.995664	17.963291	0.906947	0	0
0	0	0	35.221736	9.034661	32.495019	9.034661	4.964422E+13	4.680276E-5	21366.257912	17.938806	0.901521	0	0
0	0	0	35.137384	9.071169	32.398811	9.071169	4.701066E+13	4.66055E-5	21456.693157	17.96798	0.896213	0	0
0	0	0	35.053865	9.105666	32.304045	9.105666	4.454029E+13	4.641839E-5	21543.181717	17.944319	0.890906	0	0
0	0	0	34.968173	9.137721	32.207816	9.137721	4.214008E+13	4.611183E-5	21686.406434	17.966073	0.885545	0	0
0	0	0	34.885863	9.168383	32.115417	9.168383	3.995606E+13	4.59171E-5	21778.37686	17.959384	0.880581	0	0
0	0	0	34.805676	9.197145	32.025732	9.197145	3.793695E+13	4.575141E-5	21857.248588	17.955498	0.875089	0	0
0	0	0	34.724477	9.224428	31.935465	9.224428	3.5996E+13	4.554592E-5	21955.86196	17.968775	0.870005	0	0
0	0	0	34.644502	9.250102	31.846918	9.250102	3.418115E+13	4.534868E-5	22051.356941	17.934992	0.864685	0	0
0	0	0	34.565459	9.273945	31.759862	9.273945	3.247714E+13	4.512163E-5	22162.316373	17.966738	0.859443	0	0
0	0	0	34.486693	9.296808	31.673378	9.296808	3.08634E+13	4.491233E-5	22265.599762	17.941669	0.854215	0	0
0	0	0	34.408042	9.319193	31.58715	9.319193	2.933183E+13	4.476107E-5	22340.841965	17.956346	0.849198	0	0
0	0	0	34.330943	9.339643	31.503072	9.339643	2.790411E+13	4.456391E-5	22439.682812	17.950917	0.844114	0	0
0	0	0	34.252847	9.358709	31.418403	9.358709	2.652862E+13	4.428865E-5	22579.146916	17.939301	0.839269	0	0
0	0	0	34.175453	9.377434	31.334544	9.377434	2.523227E+13	4.408822E-5	22681.796658	17.962322	0.83445	0	0
0	0	0	34.099138	9.395591	31.251943	9.395591	2.401589E+13	4.394955E-5	22753.359414	17.933012	0.829736	0	0
0	0	0	34.020781	9.412681	31.167599	9.412681	2.282785E+13	4.372382E-5	22870.829482	17.958033	0.824825	0	0
0	0	0	33.944041	9.428463	31.085283	9.428463	2.172121E+13	4.34768E-5	23000.770886	17.925749	0.820045	0	0
0	0	0	33.867921	9.443868	31.003705	9.443868	2.067644E+13	4.32874E-5	23101.409181	17.953761	0.815305	0	0
0	0	0	33.791491	9.458283	30.922112	9.458283	1.967789E+13	4.304793E-5	23229.919396	17.938807	0.810843	0	0
0	0	0	33.716091	9.47245	30.841632	9.47245	1.873998E+13	4.28902E-5	23315.350538	17.928562	0.806222	0	0
0	0	0	33.640853	9.485738	30.761581	9.485738	1.784859E+13	4.270035E-5	23419.013121	17.944805	0.801654	0	0
0	0	0	33.565126	9.498391	30.681225	9.498391	1.699416E+13	4.248874E-5	23535.64469	17.912448	0.797085	0	0
0	0	0	33.49082	9.510236	30.602549	9.510236	1.619547E+13	4.227591E-5	23654.135155	17.936795	0.792728	0	0
0	0	0	33.416072	9.521921	30.523473	9.521921	1.542987E+13	4.210734E-5	23748.826348	17.903388	0.788094	0	0
0	0	0	33.340655	9.532596	30.444026	9.532596	1.469403E+13	4.183584E-5	23902.951138	17.92159	0.783658	0	0
0	0	0	33.266611	9.542928	30.366068	9.542928	1.40057E+13	4.162058E-5	24026.572178	17.903836	0.779142	0	0
0	0	0	33.191896	9.553317	30.287414	9.553317	1.334378E+13	4.147811E-5	24109.104505	17.903732	0.774429	0	0
0	0	0	33.117541	9.56245	30.209504	9.56245	1.271608E+13	4.119325E-5	24275.823505	17.901084	0.77031	0	0
0	0	0	33.044394	9.571912	30.132713	9.571912	1.212737E+13	4.108031E-5	24342.55897	17.873314	0.765926	0	0
0	0	0	32.970496	9.580289	30.055492	9.580289	1.156026E+13	4.080928E-5	24504.229368	17.907213	0.761543	0	0
0	0	0	32.898101	9.588817	29.979742	9.588817	1.103038E+13	4.068383E-5	24579.788379	17.86429	0.75749	0	0
0	0	0	32.824857	9.596552	29.903374	9.596552	1.051898E+13	4.044153E-5	24727.058578	17.893691	0.75308	0	0
0	0	0	32.75269	9.604001	29.828181	9.604001	1.003828E+13	4.023531E-5	24853.791103	17.863684	0.74896	0	0
0	0	0	32.681341	9.61123	29.753879	9.61123	9.584606E+12	4.00713E-5	24955.519573	17.870302	0.744696	0	0
0	0	0	32.608325	9.617808	29.678091	9.617808	9.14154E+12	3.977757E-5	25139.798881	17.863282	0.740524	0	0
0	0	0	32.537743	9.624623	29.604689	9.624623	8.732709E+12	3.967484E-5	25204.892101	17.841276	0.736299	0	0
0	0	0	32.466442	9.630965	29.530704	9.630965	8.338263E+12	3.950474E-5	25313.416123	17.864074	0.732206	0	0
0	0	0	32.394602	9.636843	29.456314	9.636843	7.958841E+12	3.926499E-5	25467.982454	17.82291	0.728086	0	0
0	0	0	32.325147	9.642628	29.384362	9.642628	7.608428E+12	3.91276E-5	25557.406707	17.847798	0.723822	0	0
0	0	0	32.25334	9.648364	29.310047	9.648364	7.262351E+12	3.898626E-5	25650.065398	17.816313	0.719901	0	0
0	0	0	32.183004	9.652884	29.237588	9.652884	6.938616E+12	3.858234E-5	25918.596015	17.821341	0.715662	0	0
0	0	0	32.112111	9.657826	29.164438	9.657826	6.626919E+12	3.835088E-5	26075.022936	17.817689	0.711728	0	0
0	0	0	32.041284	9.662029	29.091579	9.662029	6.329485E+12	3.794456E-5	26354.240141	17.801893	0.707648	0	0
0	0	0	31.970702	9.66695	29.018748	9.66695	6.046354E+12	3.783779E-5	26428.605098	17.80886	0.703859	0	0
0	0	0	31.89669	9.67181	28.942468	9.67181	5.76305E+12	3.769857E-5	26526.202822	17.778477	0.699898	0	0
0	0	0	31.825716	9.675783	28.869528	9.675783	5.503847E+12	3.738751E-5	26746.898892	17.798846	0.696109	0	0
0	0	0	31.755804	9.679712	28.797675	9.679712	5.259917E+12	3.714269E-5	26923.198798	17.768375	0.692201	0	0
0	0	0	31.683245	9.683438	28.723209	9.683438	5.018175E+12	3.681599E-5	27162.112716	17.770091	0.688345	0	0
0	0	0	31.612402	9.686954	28.650539	9.686954	4.792867E+12	3.650486E-5	27393.613398	17.758911	0.684649	0	0
0	0	0	31.542653	9.690544	28.578952	9.690544	4.580921E+12	3.630505E-5	27544.380696	17.74619	0.680648	0	0
0	0	0	31.47181	9.693993	28.506303	9.693993	4.375238E+12	3.607985E-5	27716.30462	17.75964	0.676727	0	0
0	0	0	31.402012	9.696967	28.434854	9.696967	4.181621E+12	3.573214E-5	27986.012935	17.71205	0.673004	0	0
0	0	0	31.330809	9.700622	28.361776	9.700622	3.99293E+12	3.570875E-5	28004.336843	17.727693	0.669254	0	0
0	0	0	31.260456	9.703532	28.289785	9.703532	3.814852E+12	3.542977E-5	28224.848057	17.703911	0.665346	0	0
0	0	0	31.187751	9.706324	28.215452	9.706324	3.639158E+12	3.50949E-5	28494.170078	17.704897	0.661662	0	0
0	0	0	31.117299	9.709318	28.143335	9.709318	3.476632E+12	3.496583E-5	28599.351296	17.686787	0.658071	0	0
0	0	0	31.047256	9.711902	28.071756	9.711902	3.322242E+12	3.469787E-5	28820.210953	17.668314	0.654202	0	0
0	0	0	30.974878	9.714305	27.997871	9.714305	3.169901E+12	3.433478E-5	29124.984708	17.683417	0.650611	0	0
0	0	0	30.90392	9.716857	27.925377	9.716857	3.027333E+12	3.413467E-5	29295.729427	17.645287	0.646928	0	0
0	0	0	30.832342	9.719086	27.852353	9.719086	2.890012E+12	3.379688E-5	29588.527337	17.671059	0.643376	0	0
0	0	0	30.76011	9.721347	27.778659	9.721347	2.757749E+12	3.351276E-5	29839.376275	17.631179	0.6396	0	0
0	0	0	30.689544	9.723197	27.706775	9.723197	2.634383E+12	3.307273E-5	30236.390056	17.647599	0.635969	0	0
0	0	0	30.617198	9.725714	27.632886	9.725714	2.513631E+12	3.304501E-5	30261.752016	17.638514	0.632299	0	0
0	0	0	30.546567	9.727519	27.560949	9.727519	2.401082E+12	3.267001E-5	30609.1128	17.610157	0.62876	0	0
0	0	0	30.47494	9.729131	27.488064	9.729131	2.29209E+12	3.219284E-5	31062.811072	17.620861	0.625328	0	0
0	0	0	30.401793	9.73141	27.413439	9.73141	2.185889E+12	3.216864E-5	31086.174479	17.580281	0.621802	0	0
0	0	0	30.330411	9.733075	27.340785	9.733075	2.086995E+12	3.182403E-5	31422.798641	17.608786	0.618304	0	0
0	0	0	30.256333	9.734677	27.265426	9.734677	1.989094E+12	3.142466E-5	31822.141455	17.554007	0.61495	0	0
0	0	0	30.182452	9.736105	27.190318	9.736105	1.896026E+12	3.094926E-5	32310.954867	17.567248	0.611425	0	0
0	0	0	30.109403	9.73821	27.115843	9.73821	1.808289E+12	3.103655E-5	32220.077854	17.541586	0.608124	0	0
0	0	0	30.034509	9.739713	27.039688	9.739713	1.722548E+12	3.069313E-5	32580.577032	17.526406	0.604744	0	0
0	0	0	29.960987	9.741053	26.96497	9.741053	1.642332E+12	3.029495E-5	33008.798192	17.539112	0.601258	0	0
0	0	0	29.885586	9.742803	26.888227	9.742803	1.563945E+12	3.023945E-5	33069.381307	17.49696	0.597971	0	0
0	0	0	29.809744	9.744261	26.811127	9.744261	1.488873E+12	2.999319E-5	33340.90454	17.521077	0.59471	0	0
0	0	0	29.734572	9.745622	26.734734	9.745622	1.41802E+12	2.972702E-5	33639.434444	17.472169	0.591515	0	0
0	0	0	29.658126	9.747048	26.657034	9.747048	1.349423E+12	2.95472E-5	33844.152218	17.48881	0.58824	0	0
0	0	0	29.580324	9.747881	26.578145	9.747881	1.283015E+12	2.884332E-5	34670.077691	17.457373	0.585085	0	0
0	0	0	29.5028	9.749575	26.499271	9.749575	1.220094E+12	2.900255E-5	34479.723302	17.452752	0.58189	0	0
0	0	0	29.423332	9.749796	26.418887	9.749796	1.158797E+12	2.775252E-5	36032.761267	17.442152	0.578879	0	0
0	0	0	29.343766	9.751393	26.337979	9.751393	1.100509E+12	2.787627E-5	35872.798666	17.406972	0.575592	0	0
0	0	0	29.262648	9.752334	26.255705	9.752334	1.044102E+12	2.73774E-5	36526.475401	17.428907	0.572397	0	0
0	0	0	29.180959	9.753254	26.17286	9.753254	9.902179E+11	2.688794E-5	37191.396577	17.374066	0.569426	0	0
0	0	0	29.098616	9.754506	26.089251	9.754506	9.387168E+11	2.678764E-5	37330.650077	17.397755	0.566178	0	0
0	0	0	29.016779	9.755393	26.006267	9.755393	8.901863E+11	2.635251E-5	37947.045687	17.350942	0.563405	0	0
0	0	0	28.932868	9.755924	25.921296	9.755924	8.430294E+11	2.552849E-5	39171.919154	17.349498	0.560171	0	0
0	0	0	28.848255	9.757445	25.835309	9.757445	7.980069E+11	2.586205E-5	38666.68954	17.328822	0.557358	0	0
0	0	0	28.763233	9.758169	25.749155	9.758169	7.551885E+11	2.532136E-5	39492.346263	17.313923	0.554071	0	0
0	0	0	28.677346	9.758925	25.662117	9.758925	7.142664E+11	2.484731E-5	40245.813257	17.319083	0.551298	0	0
0	0	0	28.588975	9.759435	25.572645	9.759435	6.744744E+11	2.407066E-5	41544.353209	17.271356	0.548328	0	0
0	0	0	28.499854	9.760471	25.48225	9.760471	6.365888E+11	2.398202E-5	41697.906057	17.297071	0.545423	0	0
0	0	0	28.410013	9.76128	25.391199	9.76128	6.005511E+11	2.36516E-5	42280.430751	17.251726	0.542532	0	0
0	0	0	28.31818	9.761799	25.298224	9.761799	5.658215E+11	2.295225E-5	43568.710989	17.255033	0.539561	0	0
0	0	0	28.225644	9.762361	25.204525	9.762361	5.328574E+11	2.234125E-5	44760.254885	17.234041	0.536709	0	0
0	0	0	28.130233	9.763269	25.107814	9.763269	5.008788E+11	2.220416E-5	45036.615179	17.209577	0.533712	0	0
0	0	0	28.028648	9.764112	25.004882	9.764112	4.689372E+11	2.19578E-5	45541.905366	17.214009	0.530939	0	0
0	0	0	27.929709	9.764879	24.904648	9.764879	4.397868E+11	2.170341E-5	46075.700353	17.166242	0.527929	0	0
0	0	0	27.830117	9.765226	24.803883	9.765226	4.122736E+11	2.085422E-5	47951.933298	17.177117	0.525104	0	0
0	0	0	27.73077	9.76597	24.703243	9.76597	3.865431E+11	2.066157E-5	48399.024892	17.133207	0.522172	0	0
0	0	0	27.629773	9.766252	24.601078	9.766252	3.620307E+11	1.977621E-5	50565.813207	17.140762	0.519241	0	0
0	0	0	27.525885	9.767191	24.495788	9.767191	3.384374E+11	1.994435E-5	50139.517285	17.105885	0.516561	0	0
0	0	0	27.419089	9.767387	24.387789	9.767387	3.157854E+11	1.892102E-5	52851.278596	17.089089	0.513643	0	0
0	0	0	27.311444	9.767949	24.278819	9.767949	2.944873E+11	1.853372E-5	53955.720362	17.085307	0.510976	0	0
0	0	0	27.202377	9.768263	24.168488	9.768263	2.743725E+11	1.77682E-5	56280.314445	17.04122	0.508204	0	0
0	0	0	27.091302	9.768814	24.056054	9.768814	2.552986E+11	1.741809E-5	57411.579665	17.062887	0.505325	0	0
0	0	0	26.977792	9.769203	23.941209	9.769203	2.37176E+11	1.681786E-5	59460.588554	17.015433	0.5025	0	0
0	0	0	26.862666	9.769796	23.824667	9.769796	2.201088E+11	1.660332E-5	60228.922995	17.021426	0.499873	0	0
0	0	0	26.743995	9.770293	23.704572	9.770293	2.038005E+11	1.624022E-5	61575.531114	16.985191	0.497153	0	0
0	0	0	26.623282	9.770467	23.582513	9.770467	1.884508E+11	1.53196E-5	65275.874925	16.977354	0.494446	0	0
0	0	0	26.497979	9.770802	23.455766	9.770802	1.737391E+11	1.469446E-5	68052.852882	16.969968	0.491779	0	0
0	0	0	26.371565	9.771503	23.327781	9.771503	1.600605E+11	1.478685E-5	67627.642651	16.920981	0.489007	0	0
0	0	0	26.241754	9.771441	23.196601	9.771441	1.471342E+11	1.348105E-5	74178.197735	16.934189	0.486406	0	0
0	0	0	26.109606	9.772045	23.062851	9.772045	1.35047E+11	1.343287E-5	74444.265896	16.876589	0.483831	0	0
0	0	0	25.974388	9.772143	22.926156	9.772143	1.237061E+11	1.247863E-5	80137.006941	16.880146	0.481349	0	0
0	0	0	25.837047	9.772489	22.787237	9.772489	1.131616E+11	1.201179E-5	83251.53586	16.843748	0.478563	0	0
0	0	0	25.695442	9.772974	22.643965	9.772974	1.032299E+11	1.182609E-5	84558.768691	16.840758	0.475856	0	0
0	0	0	25.549851	9.773158	22.496759	9.773158	9.392679E+10	1.109409E-5	90138.058693	16.819884	0.473308	0	0
0	0	0	25.400961	9.773472	22.346178	9.773472	8.527933E+10	1.063345E-5	94042.871294	16.787144	0.470747	0	0
0	0	0	25.249098	9.77414	22.192481	9.77414	7.727881E+10	1.093408E-5	91457.19494	16.779199	0.468265	0	0
0	0	0	25.093706	9.77398	22.035477	9.77398	6.986877E+10	9.576258E-6	104424.922432	16.740298	0.465545	0	0
0	0	0	24.935881	9.773981	21.875962	9.773981	6.30696E+10	8.646144E-6	115658.493593	16.754349	0.463115	0	0
0	0	0	24.773303	9.77452	21.711475	9.77452	5.67568E+10	8.696319E-6	114991.184074	16.710102	0.460448	0	0
0	0	0	24.605382	9.774629	21.541724	9.774629	5.089919E+10	7.98832E-6	125182.763011	16.711532	0.457914	0	0
0	0	0	24.434146	9.774769	21.368611	9.774769	4.554804E+10	7.381026E-6	135482.511125	16.672029	0.45559	0	0
0	0	0	24.257994	9.775265	21.190417	9.775265	4.062967E+10	7.435355E-6	134492.563338	16.659625	0.453015	0	0
0	0	0	24.077398	9.775503	21.007814	9.775503	3.613809E+10	7.050202E-6	141839.902283	16.652069	0.450507	0	0
0	0	0	23.897194	9.775375	20.825722	9.775375	3.215122E+10	6.056377E-6	165115.222932	16.604008	0.447958	0	0
0	0	0	23.711649	9.775472	20.63816	9.775472	2.850526E+10	5.51403E-6	181355.5532	16.614595	0.445582	0	0
0	0	0	23.522118	9.776108	20.446401	9.776108	2.520749E+10	5.911589E-6	169159.253576	16.554606	0.443166	0	0
0	0	0	23.331281	9.776302	20.25346	9.776302	2.227235E+10	5.585917E-6	179021.621702	16.561916	0.44071	0	0
0	0	0	23.135772	9.775958	20.055966	9.775958	1.961943E+10	4.3823E-6	228190.653721	16.51143	0.438452	0	0
0	0	0	22.938025	9.776389	19.855967	9.776389	1.725743E+10	4.4674E-6	223843.822468	16.502229	0.435944	0	0
0	0	0	22.735916	9.776497	19.651661	9.776497	1.513691E+10	4.081195E-6	245026.245127	16.476117	0.43366	0	0
0	0	0	22.530688	9.776842	19.444127	9.776842	1.325011E+10	4.117864E-6	242844.364624	16.451402	0.431191	0	0
0	0	0	22.322437	9.777047	19.233583	9.777047	1.157578E+10	3.956384E-6	252756.036825	16.440609	0.428946	0	0
0	0	0	22.113632	9.776907	19.022586	9.776907	1.010938E+10	3.235392E-6	309081.513404	16.387543	0.426702	0	0
0	0	0	21.901396	9.776951	18.808064	9.776951	8.809122E+9	2.876144E-6	347687.734288	16.397588	0.424523	0	0
0	0	0	21.685403	9.776994	18.589746	9.776994	7.657415E+9	2.55156E-6	391917.12101	16.346764	0.422213	0	0
0	0	0	21.468332	9.777167	18.370296	9.777167	6.651628E+9	2.414021E-6	414246.667568	16.359373	0.419849	0	0
