Vload_(V)	ILoad_(A)	RsLoad (ohm)	SunsVoc_Voltage_(V)	SunsVoc_Current_(A)	Model_Voltage_(V)	Model_Current_(A)	Carrier_Density_(cm-3)	Lifetime_(s)	Inverse_Lifetime_(s-1)	Efficiency_(%)	Intensity_(suns)	Dark_IV_Voltage_(V)	Dark_IV_Current_(A)
4.606801	9.664341	0	39.45148	-0.919138	39.732952	-0.919138	7.31747E+14	4.852488E-5	20607.09476	17.656022	1.091638	0	0
4.612732	9.664193	1.59932	39.404976	-0.555677	39.575151	-0.555677	7.111173E+14	4.883392E-5	20476.729341	17.631722	1.08966	0	0
4.656315	9.669388	-0.497899	39.307768	0.051654	39.291948	0.051654	6.697694E+14	4.890041E-5	20448.980153	17.572004	1.087668	0	0
5.222966	9.664607	1.30895	39.197444	0.697334	38.983841	0.697334	6.256214E+14	4.896617E-5	20421.61389	17.623205	1.084555	0	0
7.488889	9.666087	-0.791159	39.08088	1.329941	38.673452	1.329941	5.820056E+14	4.901002E-5	20403.429645	17.618049	1.084489	0	0
10.012064	9.659983	1.591279	38.965476	1.917863	38.377867	1.917863	5.417055E+14	4.907847E-5	20375.04727	17.652249	1.083566	0	0
12.467776	9.655766	1.497237	38.851934	2.453459	38.100137	2.453459	5.046823E+14	4.912038E-5	20357.72599	17.607813	1.083091	0	0
14.885269	9.654497	1.279742	38.741169	2.93809	37.840768	2.93809	4.709218E+14	4.91369E-5	20350.937851	17.587424	1.081429	0	0
17.289425	9.648334	1.137708	38.630959	3.378217	37.595561	3.378217	4.39501E+14	4.90692E-5	20379.063913	17.6127	1.078329	0	0
19.679832	9.626913	1.064529	38.525584	3.780651	37.366717	3.780651	4.113624E+14	4.906897E-5	20379.198567	17.597577	1.074636	0	0
22.099661	9.626666	0.814497	38.422382	4.146086	37.151365	4.146086	3.855017E+14	4.90294E-5	20395.68042	17.618204	1.070072	0	0
24.485438	9.620403	0.596945	38.318968	4.491094	36.94204	4.491094	3.61175E+14	4.899892E-5	20408.395176	17.597332	1.066128	0	0
26.883126	9.614184	0.373609	38.213789	4.822078	36.735225	4.822078	3.37968E+14	4.898456E-5	20414.406263	17.608015	1.063555	0	0
27.788854	9.613645	0.281542	38.107989	5.131795	36.534288	5.131795	3.160928E+14	4.894456E-5	20431.11465	17.64291	1.059783	0	0
28.685506	9.587294	0.268114	38.000834	5.422961	36.337662	5.422961	2.953482E+14	4.88719E-5	20461.510505	17.593894	1.057145	0	0
29.574114	9.524637	0.287434	37.896783	5.687742	36.152218	5.687742	2.764811E+14	4.879616E-5	20493.286928	17.61309	1.051565	0	0
30.47233	9.416401	0.299242	37.793499	5.936159	35.972546	5.936159	2.58922E+14	4.874205E-5	20516.05456	17.586549	1.046685	0	0
31.346261	9.243974	0.306488	37.689202	6.166846	35.797282	6.166846	2.423013E+14	4.862174E-5	20566.832812	17.608144	1.04125	0	0
32.209417	8.997516	0.304915	37.587601	6.379535	35.630227	6.379535	2.271188E+14	4.85261E-5	20607.382839	17.635715	1.03542	0	0
33.081873	8.603626	0.307406	37.485901	6.579003	35.467116	6.579003	2.128589E+14	4.841959E-5	20652.72153	17.599098	1.03112	0	0
33.921648	8.069554	0.306344	37.385329	6.763252	35.309792	6.763252	1.996243E+14	4.829302E-5	20706.858172	17.635185	1.02587	0	0
34.745298	7.371369	0.304269	37.286749	6.933323	35.158805	6.933323	1.874393E+14	4.816905E-5	20760.159873	17.622346	1.020818	0	0
35.550093	6.499286	0.302163	37.190489	7.09127	35.013854	7.09127	1.762494E+14	4.807373E-5	20801.331031	17.628746	1.015502	0	0
36.324774	5.478451	0.298385	37.094001	7.239423	34.871671	7.239423	1.656946E+14	4.795604E-5	20852.386113	17.646271	1.008841	0	0
37.066779	4.330504	0.29709	36.99596	7.379299	34.730464	7.379299	1.556095E+14	4.779405E-5	20923.064919	17.609113	1.003393	0	0
37.77787	3.084993	0.302562	36.898638	7.511623	34.592288	7.511623	1.461987E+14	4.766376E-5	20980.265068	17.650027	0.996758	0	0
38.413757	1.861095	0.316053	36.801219	7.635849	34.456492	7.635849	1.373422E+14	4.75185E-5	21044.402635	17.638234	0.991456	0	0
38.926637	0.82014	0.33202	36.703652	7.7521	34.32299	7.7521	1.290047E+14	4.734726E-5	21120.518011	17.644265	0.985902	0	0
31.75928	9.133465	0.307772	36.608143	7.860435	34.193976	7.860435	1.213289E+14	4.720436E-5	21184.458264	17.657518	0.979822	0	0
39.314715	0	0	36.512782	7.961422	34.06736	7.961422	1.141165E+14	4.703123E-5	21262.446324	17.623221	0.974981	0	0
0	0	0	36.418694	8.055423	33.944161	8.055423	1.074172E+14	4.68567E-5	21341.647348	17.671087	0.968003	0	0
0	0	0	36.32673	8.142934	33.825078	8.142934	1.012463E+14	4.670526E-5	21410.845977	17.64793	0.962542	0	0
0	0	0	36.235615	8.225386	33.708398	8.225386	9.547948E+13	4.656877E-5	21473.604881	17.660931	0.956725	0	0
0	0	0	36.145399	8.303161	33.594049	8.303161	9.009091E+13	4.645126E-5	21527.928903	17.673539	0.950697	0	0
0	0	0	36.054644	8.376758	33.480441	8.376758	8.497489E+13	4.631774E-5	21589.985823	17.652727	0.945829	0	0
0	0	0	35.964624	8.446974	33.368604	8.446974	8.018555E+13	4.622814E-5	21631.837207	17.694631	0.939788	0	0
0	0	0	35.874865	8.511159	33.258879	8.511159	7.567728E+13	4.60574E-5	21712.028563	17.661344	0.934565	0	0
0	0	0	35.786152	8.571339	33.151429	8.571339	7.146922E+13	4.589126E-5	21790.632958	17.669888	0.929011	0	0
0	0	0	35.699709	8.626862	33.047685	8.626862	6.759285E+13	4.572494E-5	21869.897138	17.676102	0.922878	0	0
0	0	0	35.613642	8.678955	32.945368	8.678955	6.394116E+13	4.554137E-5	21958.04894	17.64964	0.918116	0	0
0	0	0	35.52617	8.728474	32.842432	8.728474	6.043098E+13	4.531871E-5	22065.936279	17.696324	0.911653	0	0
0	0	0	35.441474	8.774689	32.743293	8.774689	5.721513E+13	4.513595E-5	22155.282782	17.653067	0.907128	0	0
0	0	0	35.355064	8.818549	32.643156	8.818549	5.41097E+13	4.48997E-5	22271.860224	17.683747	0.901166	0	0
0	0	0	35.271578	8.859993	32.546692	8.859993	5.126888E+13	4.473443E-5	22354.141474	17.678867	0.895652	0	0
0	0	0	35.189104	8.89902	32.451985	8.89902	4.860844E+13	4.457587E-5	22433.659157	17.664465	0.890455	0	0
0	0	0	35.106386	8.936137	32.357618	8.936137	4.607825E+13	4.44094E-5	22517.753966	17.700694	0.884124	0	0
0	0	0	35.024321	8.97166	32.264394	8.97166	4.369775E+13	4.427493E-5	22586.142427	17.660285	0.879164	0	0
0	0	0	34.941929	9.004539	32.171655	9.004539	4.143108E+13	4.407012E-5	22691.108073	17.690872	0.873479	0	0
0	0	0	34.859128	9.036039	32.078928	9.036039	3.927125E+13	4.386703E-5	22796.160824	17.682996	0.868005	0	0
0	0	0	34.778011	9.065833	31.988412	9.065833	3.72642E+13	4.369721E-5	22884.751817	17.663369	0.863401	0	0
0	0	0	34.698004	9.094177	31.899454	9.094177	3.538485E+13	4.355612E-5	22958.884048	17.701569	0.857189	0	0
0	0	0	34.618356	9.120759	31.811398	9.120759	3.360784E+13	4.339177E-5	23045.845239	17.658059	0.852757	0	0
0	0	0	34.53763	9.146195	31.722612	9.146195	3.189759E+13	4.320533E-5	23145.292291	17.689306	0.847045	0	0
0	0	0	34.457492	9.170059	31.634898	9.170059	3.028568E+13	4.300257E-5	23254.420632	17.67984	0.841795	0	0
0	0	0	34.378041	9.193078	31.548131	9.193078	2.876781E+13	4.284257E-5	23341.271028	17.663237	0.837086	0	0
0	0	0	34.299553	9.214609	31.462788	9.214609	2.734289E+13	4.267E-5	23435.666001	17.696693	0.831375	0	0
0	0	0	34.220934	9.235363	31.377551	9.235363	2.598621E+13	4.251478E-5	23521.229271	17.645938	0.826877	0	0
0	0	0	34.142234	9.255245	31.292501	9.255245	2.469541E+13	4.236648E-5	23603.565205	17.686221	0.82135	0	0
0	0	0	34.063926	9.273842	31.208238	9.273842	2.347456E+13	4.218993E-5	23702.338838	17.655701	0.816575	0	0
0	0	0	33.984539	9.291453	31.123197	9.291453	2.229839E+13	4.196881E-5	23827.219532	17.656676	0.811721	0	0
0	0	0	33.906247	9.308231	31.039509	9.308231	2.119606E+13	4.177361E-5	23938.559201	17.674724	0.806365	0	0
0	0	0	33.828331	9.324499	30.956354	9.324499	2.015304E+13	4.161935E-5	24027.284605	17.634198	0.802303	0	0
0	0	0	33.751477	9.339569	30.874632	9.339569	1.917446E+13	4.143578E-5	24133.732323	17.663468	0.797237	0	0
0	0	0	33.674998	9.353954	30.793497	9.353954	1.824776E+13	4.126071E-5	24236.128372	17.651237	0.792673	0	0
0	0	0	33.598389	9.367997	30.712336	9.367997	1.736431E+13	4.112376E-5	24316.841309	17.635701	0.788624	0	0
0	0	0	33.522236	9.38075	30.63203	9.38075	1.652848E+13	4.090456E-5	24447.149347	17.661415	0.7834	0	0
0	0	0	33.446672	9.393285	30.552381	9.393285	1.573882E+13	4.075157E-5	24538.931888	17.605278	0.780116	0	0
0	0	0	33.371321	9.405359	30.473086	9.405359	1.49889E+13	4.061916E-5	24618.925244	17.650874	0.774747	0	0
0	0	0	33.296737	9.415935	30.395022	9.415935	1.428178E+13	4.035074E-5	24782.692661	17.610571	0.771028	0	0
0	0	0	33.222643	9.426676	30.317398	9.426676	1.361231E+13	4.019743E-5	24877.209401	17.620561	0.766648	0	0
0	0	0	33.148941	9.436642	30.240406	9.436642	1.297748E+13	4E-5	24999.998541	17.622431	0.761847	0	0
0	0	0	33.075697	9.446614	30.163871	9.446614	1.237589E+13	3.989296E-5	25067.077621	17.592021	0.758127	0	0
0	0	0	33.001815	9.455781	30.086944	9.455781	1.17973E+13	3.96992E-5	25189.423805	17.619909	0.753563	0	0
0	0	0	32.928636	9.464612	30.010825	9.464612	1.125085E+13	3.953433E-5	25294.468568	17.592402	0.749514	0	0
0	0	0	32.856665	9.472583	29.936182	9.472583	1.07381E+13	3.930113E-5	25444.562157	17.593972	0.745425	0	0
0	0	0	32.78427	9.480484	29.861135	9.480484	1.024587E+13	3.911099E-5	25568.259931	17.604913	0.740742	0	0
0	0	0	32.712986	9.488483	29.787172	9.488483	9.783238E+12	3.904367E-5	25612.343186	17.556756	0.737392	0	0
0	0	0	32.641751	9.49545	29.713575	9.49545	9.341772E+12	3.881981E-5	25760.041146	17.5983	0.73234	0	0
0	0	0	32.569225	9.502044	29.638799	9.502044	8.912755E+12	3.854192E-5	25945.772061	17.540278	0.729253	0	0
0	0	0	32.499525	9.508771	29.566816	9.508771	8.519018E+12	3.843214E-5	26019.891739	17.573394	0.72457	0	0
0	0	0	32.427751	9.515141	29.492862	9.515141	8.131721E+12	3.825115E-5	26143.001567	17.561861	0.720468	0	0
0	0	0	32.35663	9.521304	29.419628	9.521304	7.765309E+12	3.810135E-5	26245.787496	17.532246	0.717012	0	0
0	0	0	32.285443	9.527061	29.346452	9.527061	7.415083E+12	3.790863E-5	26379.216133	17.560545	0.71225	0	0
0	0	0	32.214829	9.532615	29.273912	9.532615	7.083269E+12	3.77392E-5	26497.643874	17.52061	0.708821	0	0
0	0	0	32.144655	9.537877	29.201905	9.537877	6.76823E+12	3.756109E-5	26623.293193	17.536138	0.704785	0	0
0	0	0	32.073224	9.542842	29.128727	9.542842	6.461924E+12	3.732668E-5	26790.489784	17.529584	0.700458	0	0
0	0	0	32.002233	9.547733	29.056014	9.547733	6.171238E+12	3.71429E-5	26923.042171	17.504736	0.697015	0	0
0	0	0	31.932386	9.551922	28.984665	9.551922	5.897993E+12	3.682092E-5	27158.474494	17.530927	0.692385	0	0
0	0	0	31.859371	9.556473	28.910025	9.556473	5.62527E+12	3.660003E-5	27322.383267	17.473129	0.689352	0	0
0	0	0	31.78758	9.560607	28.836743	9.560607	5.369417E+12	3.63277E-5	27527.201787	17.492132	0.685104	0	0
0	0	0	31.717455	9.564889	28.765086	9.564889	5.130736E+12	3.620729E-5	27618.745194	17.47048	0.681384	0	0
0	0	0	31.645877	9.568715	28.692111	9.568715	4.898041E+12	3.594805E-5	27817.919397	17.451473	0.678074	0	0
0	0	0	31.573482	9.57254	28.618317	9.57254	4.673419E+12	3.572883E-5	27988.604567	17.481086	0.673536	0	0
0	0	0	31.502884	9.575884	28.546473	9.575884	4.464294E+12	3.542031E-5	28232.391894	17.425152	0.670885	0	0
0	0	0	31.432367	9.579682	28.474572	9.579682	4.264749E+12	3.535503E-5	28284.521643	17.473932	0.666176	0	0
0	0	0	31.361246	9.582513	28.402362	9.582513	4.072524E+12	3.492948E-5	28629.110875	17.425568	0.663142	0	0
0	0	0	31.29104	9.5858	28.330929	9.5858	3.891268E+12	3.477178E-5	28758.952934	17.422728	0.659673	0	0
0	0	0	31.220588	9.588759	28.259352	9.588759	3.717486E+12	3.451905E-5	28969.508953	17.438948	0.655399	0	0
0	0	0	31.14803	9.59192	28.185598	9.59192	3.546613E+12	3.437001E-5	29095.131962	17.381799	0.652589	0	0
0	0	0	31.07668	9.594643	28.113192	9.594643	3.386246E+12	3.409769E-5	29327.503356	17.423508	0.648236	0	0
0	0	0	31.005984	9.597354	28.041445	9.597354	3.234498E+12	3.388793E-5	29509.032867	17.383256	0.644926	0	0
0	0	0	30.934536	9.599969	27.968974	9.599969	3.088044E+12	3.36679E-5	29701.881638	17.367644	0.641852	0	0
0	0	0	30.863758	9.602572	27.897178	9.602572	2.9495E+12	3.351277E-5	29839.369635	17.377764	0.637578	0	0
0	0	0	30.791412	9.605092	27.823835	9.605092	2.814307E+12	3.333636E-5	29997.274172	17.332924	0.634901	0	0
0	0	0	30.720389	9.607312	27.751911	9.607312	2.687614E+12	3.307515E-5	30234.175024	17.38053	0.63039	0	0
0	0	0	30.648108	9.609405	27.678765	9.609405	2.564531E+12	3.276287E-5	30522.356489	17.335111	0.627435	0	0
0	0	0	30.57573	9.611412	27.605548	9.611412	2.446928E+12	3.244576E-5	30820.669721	17.342684	0.623979	0	0
0	0	0	30.504037	9.613535	27.532982	9.613535	2.335756E+12	3.226569E-5	30992.672494	17.350084	0.620009	0	0
0	0	0	30.431625	9.615626	27.459705	9.615626	2.228595E+12	3.21066E-5	31146.24174	17.299668	0.617199	0	0
0	0	0	30.358855	9.617185	27.386232	9.617185	2.125854E+12	3.163947E-5	31606.092273	17.31498	0.613361	0	0
0	0	0	30.285447	9.619021	27.312035	9.619021	2.027011E+12	3.13905E-5	31856.770823	17.263092	0.610234	0	0
0	0	0	30.211827	9.621091	27.237552	9.621091	1.932496E+12	3.135879E-5	31888.982864	17.27305	0.606765	0	0
0	0	0	30.137504	9.622331	27.162621	9.622331	1.841549E+12	3.076546E-5	32503.978137	17.269435	0.602993	0	0
0	0	0	30.063753	9.624177	27.088077	9.624177	1.755533E+12	3.067575E-5	32599.036715	17.224543	0.600315	0	0
0	0	0	29.989463	9.625395	27.013185	9.625395	1.672948E+12	3.014705E-5	33170.743409	17.255809	0.595975	0	0
0	0	0	29.915255	9.626836	26.938306	9.626836	1.594333E+12	2.98342E-5	33518.579466	17.206782	0.59343	0	0
0	0	0	29.840704	9.629009	26.862857	9.629009	1.519073E+12	3.017456E-5	33140.499878	17.219946	0.589829	0	0
0	0	0	29.765352	9.630375	26.786855	9.630375	1.446614E+12	2.989086E-5	33455.041169	17.211261	0.58632	0	0
0	0	0	29.690131	9.631613	26.711023	9.631613	1.377728E+12	2.954389E-5	33847.951933	17.169269	0.58388	0	0
0	0	0	29.614779	9.633095	26.634985	9.633095	1.312011E+12	2.946887E-5	33934.116566	17.208771	0.579632	0	0
0	0	0	29.538235	9.633652	26.558036	9.633652	1.248462E+12	2.855099E-5	35025.053143	17.133991	0.577152	0	0
0	0	0	29.461577	9.635293	26.480638	9.635293	1.187903E+12	2.870054E-5	34842.555645	17.15707	0.573551	0	0
0	0	0	29.383007	9.636244	26.401536	9.636244	1.12888E+12	2.819728E-5	35464.413672	17.126539	0.57028	0	0
0	0	0	29.305075	9.637608	26.322945	9.637608	1.073234E+12	2.817555E-5	35491.762205	17.097603	0.567484	0	0
0	0	0	29.225884	9.638972	26.243093	9.638972	1.019498E+12	2.820422E-5	35455.691377	17.110156	0.563817	0	0
0	0	0	29.145681	9.63971	26.162418	9.63971	9.678165E+11	2.757594E-5	36263.502659	17.067886	0.561099	0	0
0	0	0	29.065674	9.64067	26.081871	9.64067	9.188715E+11	2.724352E-5	36705.980425	17.079672	0.557749	0	0
0	0	0	28.984785	9.64129	26.000545	9.64129	8.719025E+11	2.654639E-5	37669.904796	17.065037	0.554623	0	0
0	0	0	28.902508	9.64259	25.917615	9.64259	8.265896E+11	2.667072E-5	37494.297506	17.024731	0.552169	0	0
0	0	0	28.819593	9.643093	25.834294	9.643093	7.833076E+11	2.587234E-5	38651.317043	17.060074	0.54808	0	0
0	0	0	28.737185	9.644212	25.751289	9.644212	7.425357E+11	2.58887E-5	38626.893923	16.9781	0.546168	0	0
0	0	0	28.652294	9.64499	25.665899	9.64499	7.027531E+11	2.548759E-5	39234.784002	17.025649	0.542158	0	0
0	0	0	28.566537	9.646109	25.579536	9.646109	6.647285E+11	2.558767E-5	39081.321328	16.963984	0.539757	0	0
0	0	0	28.480225	9.646484	25.492846	9.646484	6.285348E+11	2.470237E-5	40481.941782	16.947357	0.536829	0	0
0	0	0	28.392769	9.647315	25.404867	9.647315	5.93871E+11	2.447922E-5	40850.968539	16.946045	0.533399	0	0
0	0	0	28.30221	9.648167	25.313769	9.648167	5.599903E+11	2.429884E-5	41154.222185	16.896542	0.530959	0	0
0	0	0	28.21268	9.648541	25.223851	9.648541	5.283951E+11	2.347037E-5	42606.911088	16.917157	0.527688	0	0
0	0	0	28.121271	9.649457	25.131881	9.649457	4.979753E+11	2.348101E-5	42587.60001	16.897795	0.524693	0	0
0	0	0	28.024211	9.650183	25.034302	9.650183	4.675893E+11	2.317882E-5	43142.843609	16.863582	0.522425	0	0
0	0	0	27.926121	9.651164	24.93561	9.651164	4.387643E+11	2.336858E-5	42792.507351	16.89345	0.518718	0	0
0	0	0	27.827084	9.651443	24.836186	9.651443	4.114633E+11	2.238871E-5	44665.37516	16.818046	0.516885	0	0
0	0	0	27.729321	9.651934	24.737975	9.651934	3.8618E+11	2.18443E-5	45778.533357	16.864043	0.513138	0	0
0	0	0	27.630873	9.652595	24.639022	9.652595	3.62289E+11	2.164576E-5	46198.422754	16.789253	0.510949	0	0
0	0	0	27.530251	9.653171	24.537917	9.653171	3.393974E+11	2.132339E-5	46896.859253	16.795578	0.507915	0	0
0	0	0	27.427621	9.653555	24.434855	9.653555	3.17538E+11	2.066155E-5	48399.086552	16.775626	0.505198	0	0
0	0	0	27.321789	9.653982	24.328569	9.653982	2.964701E+11	2.008601E-5	49785.890924	16.732064	0.502744	0	0
0	0	0	27.216234	9.654494	24.222536	9.654494	2.768499E+11	1.973177E-5	50679.700816	16.752474	0.499499	0	0
0	0	0	27.107788	9.655261	24.113523	9.655261	2.580436E+11	1.994441E-5	50139.356946	16.701209	0.497059	0	0
0	0	0	26.998167	9.655603	24.003462	9.655603	2.403315E+11	1.930182E-5	51808.598615	16.698231	0.494395	0	0
0	0	0	26.884919	9.656093	23.889718	9.656093	2.233091E+11	1.900109E-5	52628.55205	16.695554	0.491334	0	0
0	0	0	26.771262	9.656307	23.77565	9.656307	2.074375E+11	1.812097E-5	55184.690844	16.634253	0.489488	0	0
0	0	0	26.653359	9.656776	23.657243	9.656776	1.921637E+11	1.782778E-5	56092.24094	16.680577	0.485702	0	0
0	0	0	26.533544	9.65715	23.536948	9.65715	1.777941E+11	1.735125E-5	57632.730907	16.609686	0.484	0	0
0	0	0	26.410512	9.657619	23.413397	9.657619	1.641559E+11	1.713821E-5	58349.157337	16.615818	0.481019	0	0
0	0	0	26.285258	9.657812	23.287702	9.657812	1.513456E+11	1.626731E-5	61472.979683	16.593948	0.478144	0	0
0	0	0	26.157537	9.65827	23.159451	9.65827	1.393119E+11	1.610407E-5	62096.11874	16.538548	0.476112	0	0
0	0	0	26.026844	9.658431	23.028311	9.658431	1.279879E+11	1.519723E-5	65801.445903	16.567322	0.472775	0	0
0	0	0	25.894452	9.659091	22.895312	9.659091	1.174549E+11	1.569929E-5	63697.160423	16.499164	0.47081	0	0
0	0	0	25.757943	9.65923	22.758345	9.65923	1.075013E+11	1.476072E-5	67747.392505	16.515721	0.468145	0	0
0	0	0	25.617465	9.659794	22.617265	9.659794	9.813817E+10	1.514756E-5	66017.252727	16.488687	0.465389	0	0
0	0	0	25.47212	9.659987	22.471418	9.659987	8.93081E+10	1.439417E-5	69472.562159	16.443867	0.463489	0	0
0	0	0	25.32421	9.659999	22.323055	9.659999	8.113742E+10	1.311295E-5	76260.516756	16.47313	0.460178	0	0
0	0	0	25.172837	9.660202	22.171159	9.660202	7.354886E+10	1.24693E-5	80196.980343	16.407464	0.458252	0	0
0	0	0	25.018997	9.660968	22.016613	9.660968	6.656344E+10	1.384685E-5	72218.601587	16.405538	0.45572	0	0
0	0	0	24.861515	9.660756	21.858718	9.660756	6.009929E+10	1.176467E-5	85000.231474	16.389472	0.453016	0	0
0	0	0	24.699459	9.660959	21.696107	9.660959	5.410214E+10	1.122567E-5	89081.521551	16.337518	0.451103	0	0
0	0	0	24.531784	9.661438	21.527773	9.661438	4.852622E+10	1.172994E-5	85251.895642	16.375507	0.447792	0	0
0	0	0	24.359666	9.66146	21.355125	9.66146	4.33997E+10	1.057159E-5	94593.132365	16.291677	0.446341	0	0
0	0	0	24.182892	9.661875	21.177685	9.661875	3.869772E+10	1.101345E-5	90798.080725	16.3133	0.443413	0	0
0	0	0	24.001137	9.661919	20.995364	9.661919	3.439383E+10	9.963742E-6	100363.895613	16.278396	0.441012	0	0
0	0	0	23.818614	9.662121	20.812223	9.662121	3.055339E+10	9.65901E-6	103530.279568	16.246613	0.438955	0	0
0	0	0	23.631272	9.66243	20.624216	9.66243	2.705707E+10	9.93575E-6	100646.657722	16.266123	0.436079	0	0
0	0	0	23.440859	9.662187	20.4333	9.662187	2.391315E+10	7.788294E-6	128397.82261	16.188894	0.434325	0	0
0	0	0	23.24664	9.662283	20.238461	9.662283	2.108243E+10	7.187287E-6	139134.56221	16.186838	0.431713	0	0
0	0	0	23.049416	9.66274	20.040494	9.66274	1.855059E+10	8.130434E-6	122994.661565	16.15829	0.429167	0	0
0	0	0	22.848059	9.663017	19.838439	9.663017	1.627911E+10	8.625509E-6	115935.187474	16.109806	0.4274	0	0
0	0	0	22.642095	9.662943	19.631873	9.662943	1.424314E+10	7.148093E-6	139897.460998	16.153527	0.424194	0	0
0	0	0	22.433273	9.663305	19.422303	9.663305	1.243871E+10	8.419817E-6	118767.430596	16.06557	0.423007	0	0
0	0	0	22.221348	9.66339	19.209707	9.66339	1.084104E+10	7.996902E-6	125048.421504	16.105049	0.41996	0	0
0	0	0	22.00725	9.663518	18.994918	9.663518	9.435267E+9	8.040256E-6	124374.154252	16.058673	0.417982	0	0
0	0	0	21.789542	9.663486	18.776558	9.663486	8.192577E+9	6.723772E-6	148726.039585	16.010878	0.415977	0	0
0	0	0	21.568812	9.663646	18.555107	9.663646	7.099627E+9	7.164153E-6	139583.844465	16.025212	0.413088	0	0
0	0	0	21.346367	9.663667	18.331979	9.663667	6.145642E+9	6.399222E-6	156268.995906	15.936834	0.411703	0	0
