Vload_(V)	ILoad_(A)	RsLoad (ohm)	SunsVoc_Voltage_(V)	SunsVoc_Current_(A)	Model_Voltage_(V)	Model_Current_(A)	Carrier_Density_(cm-3)	Lifetime_(s)	Inverse_Lifetime_(s-1)	Efficiency_(%)	Intensity_(suns)	Dark_IV_Voltage_(V)	Dark_IV_Current_(A)
4.613136	9.538151	0	39.002232	-1.214558	39.388475	-1.214558	5.542409E+14	3.617535E-5	27642.622087	17.08036	1.091244	0	0
4.632437	9.542955	-0.505572	38.966933	-0.804246	39.222552	-0.804246	5.421973E+14	3.679325E-5	27178.408911	17.129903	1.089582	0	0
4.675089	9.546295	-0.509831	38.84114	-0.072378	38.8641	-0.072378	5.012924E+14	3.660799E-5	27316.025184	17.074872	1.090096	0	0
5.049128	9.545754	-0.549049	38.716736	0.599502	38.526932	0.599502	4.637738E+14	3.641383E-5	27461.734046	17.115076	1.088355	0	0
7.26088	9.539727	-0.781301	38.590828	1.221353	38.204905	1.221353	4.285716E+14	3.61659E-5	27650.05054	17.066683	1.08792	0	0
9.81825	9.535474	1.484961	38.471112	1.775916	37.911007	1.775916	3.975095E+14	3.594122E-5	27822.944977	17.069851	1.087208	0	0
12.426078	9.529141	1.485721	38.352571	2.293254	37.630646	2.293254	3.689112E+14	3.57373E-5	27981.740989	17.075284	1.08602	0	0
14.831876	9.525532	1.305841	38.231368	2.782745	37.357014	2.782745	3.41743E+14	3.550425E-5	28165.45158	17.057336	1.08606	0	0
17.24851	9.523555	1.082393	38.11255	3.229528	37.099708	3.229528	3.170066E+14	3.526679E-5	28355.125297	17.106421	1.084279	0	0
19.645317	9.515297	0.922498	37.995284	3.645722	36.854026	3.645722	2.943108E+14	3.505451E-5	28526.859189	17.070259	1.084833	0	0
22.049075	9.480974	0.846001	37.876776	4.034643	36.61613	4.034643	2.729911E+14	3.481296E-5	28724.809683	17.12025	1.083686	0	0
24.457974	9.429972	0.7113	37.759085	4.394693	36.388492	4.394693	2.533178E+14	3.456548E-5	28930.488869	17.073963	1.084438	0	0
26.83717	9.438747	0.443262	37.640593	4.729404	36.168379	4.729404	2.349172E+14	3.428586E-5	29166.4536	17.111602	1.084002	0	0
27.733792	9.433949	0.356766	37.525173	5.035816	35.960444	5.035816	2.18258E+14	3.402236E-5	29392.355056	17.109257	1.083607	0	0
28.64284	9.428364	0.270071	37.410389	5.322766	35.759515	5.322766	2.028443E+14	3.377207E-5	29610.197332	17.108502	1.083725	0	0
29.540281	9.36671	0.257072	37.295753	5.587893	35.565811	5.587893	1.885211E+14	3.349397E-5	29856.059313	17.120861	1.08333	0	0
30.430046	9.213911	0.280263	37.18373	5.835419	35.380383	5.835419	1.754889E+14	3.326285E-5	30063.520175	17.071886	1.083646	0	0
31.296078	8.978458	0.29284	37.073014	6.064834	35.202085	6.064834	1.634829E+14	3.303391E-5	30271.882692	17.097618	1.082617	0	0
32.178326	8.62501	0.298008	36.961775	6.277489	35.028691	6.277489	1.522376E+14	3.276787E-5	30517.665244	17.047614	1.082657	0	0
33.023334	8.146508	0.300586	36.852072	6.477183	34.861001	6.477183	1.41897E+14	3.253467E-5	30736.403936	17.075107	1.08139	0	0
33.855391	7.511667	0.301499	36.74178	6.663204	34.697155	6.663204	1.322016E+14	3.227296E-5	30985.661577	17.065746	1.080045	0	0
34.673947	6.715684	0.300437	36.632518	6.837582	34.538071	6.837582	1.232437E+14	3.202887E-5	31221.809688	17.051991	1.079689	0	0
35.470304	5.775797	0.29859	36.524954	6.999709	34.384562	6.999709	1.150129E+14	3.179885E-5	31447.655074	17.08269	1.077473	0	0
36.236374	4.707047	0.29559	36.418452	7.150299	34.235771	7.150299	1.074005E+14	3.156682E-5	31678.808911	17.030651	1.077789	0	0
36.968001	3.533402	0.297888	36.312277	7.290722	34.090552	7.290722	1.00309E+14	3.132464E-5	31923.73355	17.085477	1.075415	0	0
37.652682	2.3099	0.309917	36.209924	7.420156	33.952505	7.420156	9.391319E+13	3.111959E-5	32134.088926	17.054386	1.074386	0	0
38.244238	1.172193	0.329039	36.109548	7.539148	33.819663	7.539148	8.803436E+13	3.0908E-5	32354.072759	17.095409	1.072368	0	0
31.130899	9.028397	0.292185	36.010789	7.649742	33.691042	7.649742	8.260718E+13	3.07011E-5	32572.112991	17.075652	1.071181	0	0
38.839056	0	0	35.913124	7.753028	33.565794	7.753028	7.756724E+13	3.049597E-5	32791.210586	17.071662	1.069875	0	0
0	0	0	35.816325	7.848964	33.443699	7.848964	7.28737E+13	3.027786E-5	33027.422285	17.088947	1.068055	0	0
0	0	0	35.71951	7.939689	33.323253	7.939689	6.84619E+13	3.005929E-5	33267.575141	17.052799	1.067659	0	0
0	0	0	35.624083	8.025664	33.205658	8.025664	6.437349E+13	2.987085E-5	33477.446321	17.09877	1.065206	0	0
0	0	0	35.529113	8.105458	33.090443	8.105458	6.054593E+13	2.96595E-5	33715.999952	17.063334	1.064572	0	0
0	0	0	35.43398	8.181793	32.976186	8.181793	5.693892E+13	2.946232E-5	33941.658036	17.086362	1.063148	0	0
0	0	0	35.338847	8.253661	32.863339	8.253661	5.354588E+13	2.925685E-5	34180.019059	17.0782	1.061921	0	0
0	0	0	35.245969	8.322853	32.753524	8.322853	5.042761E+13	2.912176E-5	34338.574816	17.060183	1.061525	0	0
0	0	0	35.15425	8.387051	32.646376	8.387051	4.752586E+13	2.897672E-5	34510.453219	17.099682	1.059586	0	0
0	0	0	35.063494	8.446846	32.541525	8.446846	4.48184E+13	2.882321E-5	34694.262307	17.054008	1.059705	0	0
0	0	0	34.972151	8.503334	32.43715	8.503334	4.224859E+13	2.865372E-5	34899.483938	17.109192	1.057568	0	0
0	0	0	34.880922	8.55648	32.33393	8.55648	3.982861E+13	2.847484E-5	35118.716556	17.07575	1.056896	0	0
0	0	0	34.790788	8.607106	32.232555	8.607106	3.757341E+13	2.832319E-5	35306.75867	17.091562	1.055748	0	0
0	0	0	34.702809	8.654522	32.134242	8.654522	3.549502E+13	2.819225E-5	35470.742812	17.087591	1.053928	0	0
0	0	0	34.614782	8.699175	32.036742	8.699175	3.353022E+13	2.804913E-5	35651.732611	17.058225	1.053532	0	0
0	0	0	34.526771	8.741186	31.940078	8.741186	3.167425E+13	2.789325E-5	35850.971317	17.093411	1.05096	0	0
0	0	0	34.440802	8.781076	31.846031	8.781076	2.996032E+13	2.777408E-5	36004.792093	17.051124	1.049931	0	0
0	0	0	34.35609	8.818263	31.754018	8.818263	2.8362E+13	2.765057E-5	36165.621843	17.0951	1.047319	0	0
0	0	0	34.272049	8.853531	31.663242	8.853531	2.686041E+13	2.753566E-5	36316.545021	17.062101	1.046013	0	0
0	0	0	34.188089	8.886834	31.573151	8.886834	2.543951E+13	2.741249E-5	36479.720366	17.071321	1.04443	0	0
0	0	0	34.104913	8.91839	31.484352	8.91839	2.410585E+13	2.729799E-5	36632.73688	17.080434	1.042056	0	0
0	0	0	34.022308	8.947907	31.396722	8.947907	2.285044E+13	2.717036E-5	36804.816226	17.058137	1.041186	0	0
0	0	0	33.938855	8.975922	31.308746	8.975922	2.164839E+13	2.702372E-5	37004.530764	17.112712	1.038059	0	0
0	0	0	33.856969	9.002755	31.222636	9.002755	2.053031E+13	2.691243E-5	37157.554309	17.066007	1.037268	0	0
0	0	0	33.776064	9.027928	31.13797	9.027928	1.948225E+13	2.679855E-5	37315.453271	17.117164	1.034854	0	0
0	0	0	33.695583	9.05223	31.053984	9.05223	1.849269E+13	2.670956E-5	37439.773109	17.075591	1.034023	0	0
0	0	0	33.615837	9.074647	30.971269	9.074647	1.756169E+13	2.659163E-5	37605.81376	17.092347	1.032401	0	0
0	0	0	33.536255	9.096181	30.888984	9.096181	1.667926E+13	2.648599E-5	37755.813605	17.095956	1.030501	0	0
0	0	0	33.456705	9.116252	30.807172	9.116252	1.584145E+13	2.635232E-5	37947.325955	17.083703	1.029156	0	0
0	0	0	33.379279	9.135477	30.72765	9.135477	1.506639E+13	2.625959E-5	38081.320604	17.121354	1.026781	0	0
0	0	0	33.301363	9.154062	30.64786	9.154062	1.432466E+13	2.617486E-5	38204.597502	17.072909	1.026188	0	0
0	0	0	33.22232	9.171439	30.567357	9.171439	1.360946E+13	2.604643E-5	38392.970753	17.115764	1.023932	0	0
0	0	0	33.144828	9.188263	30.48851	9.188263	1.294294E+13	2.59619E-5	38517.985212	17.074203	1.022903	0	0
0	0	0	33.068251	9.2037	30.410949	9.2037	1.231632E+13	2.584529E-5	38691.76173	17.093374	1.0214	0	0
0	0	0	32.990956	9.218822	30.332805	9.218822	1.171456E+13	2.574662E-5	38840.056273	17.103201	1.018828	0	0
0	0	0	32.914199	9.233216	30.255396	9.233216	1.114607E+13	2.565352E-5	38981.005122	17.07672	1.018313	0	0
0	0	0	32.838341	9.246534	30.179165	9.246534	1.061132E+13	2.553816E-5	39157.084066	17.125747	1.015266	0	0
0	0	0	32.763039	9.259474	30.103583	9.259474	1.010584E+13	2.545095E-5	39291.262536	17.063526	1.015108	0	0
0	0	0	32.687703	9.271907	30.028124	9.271907	9.624217E+12	2.536984E-5	39416.876842	17.129171	1.011744	0	0
0	0	0	32.613299	9.283399	29.953833	9.283399	9.171064E+12	2.526591E-5	39579.017905	17.065317	1.011151	0	0
0	0	0	32.538764	9.29468	29.879486	9.29468	8.738492E+12	2.518967E-5	39698.808847	17.116108	1.008301	0	0
0	0	0	32.465601	9.305275	29.806652	9.305275	8.33372E+12	2.511581E-5	39815.560358	17.093237	1.006362	0	0
0	0	0	32.391801	9.315547	29.73331	9.315547	7.944403E+12	2.504727E-5	39924.503643	17.09202	1.00474	0	0
0	0	0	32.317462	9.324977	29.659702	9.324977	7.570616E+12	2.492465E-5	40120.91846	17.114158	1.002049	0	0
0	0	0	32.244185	9.334214	29.587168	9.334214	7.219373E+12	2.484484E-5	40249.804768	17.062452	1.001337	0	0
0	0	0	32.170418	9.343158	29.514257	9.343158	6.882231E+12	2.477099E-5	40369.80167	17.124898	0.998211	0	0
0	0	0	32.097533	9.351685	29.442312	9.351685	6.564578E+12	2.470814E-5	40472.49223	17.066776	0.9973	0	0
0	0	0	32.023602	9.359208	29.369661	9.359208	6.257336E+12	2.454182E-5	40746.775645	17.124668	0.99457	0	0
0	0	0	31.950031	9.36668	29.297372	9.36668	5.965857E+12	2.441832E-5	40952.858333	17.099723	0.992829	0	0
0	0	0	31.877211	9.374369	29.225744	9.374369	5.690721E+12	2.438562E-5	41007.780308	17.101804	0.991879	0	0
0	0	0	31.800455	9.38115	29.150624	9.38115	5.41443E+12	2.420383E-5	41315.78053	17.129698	0.988911	0	0
0	0	0	31.726508	9.388188	29.078116	9.388188	5.160942E+12	2.415341E-5	41402.02264	17.082397	0.988516	0	0
0	0	0	31.654342	9.394511	29.007512	9.394511	4.924999E+12	2.40638E-5	41556.202865	17.140643	0.985389	0	0
0	0	0	31.578271	9.400544	28.933272	9.400544	4.687956E+12	2.390978E-5	41823.888863	17.07046	0.985073	0	0
0	0	0	31.505059	9.406404	28.86181	9.406404	4.470597E+12	2.381536E-5	41989.707798	17.146798	0.981867	0	0
0	0	0	31.43175	9.411885	28.790366	9.411885	4.263042E+12	2.369551E-5	42202.093451	17.084988	0.980957	0	0
0	0	0	31.357966	9.417313	28.718488	9.417313	4.063871E+12	2.360318E-5	42367.180063	17.122692	0.978662	0	0
0	0	0	31.284689	9.421955	28.647318	9.421955	3.875275E+12	2.340692E-5	42722.411587	17.100943	0.976802	0	0
0	0	0	31.211363	9.427393	28.575882	9.427393	3.695311E+12	2.341579E-5	42706.232198	17.088145	0.975615	0	0
0	0	0	31.137318	9.432003	28.503995	9.432003	3.522061E+12	2.328716E-5	42942.115969	17.130932	0.972331	0	0
0	0	0	31.063747	9.436495	28.432597	9.436495	3.357962E+12	2.318326E-5	43134.57856	17.07524	0.971579	0	0
0	0	0	30.991074	9.440671	28.362146	9.440671	3.203372E+12	2.30635E-5	43358.548356	17.144205	0.968255	0	0
0	0	0	30.917895	9.444553	28.291297	9.444553	3.054895E+12	2.290683E-5	43655.102608	17.078461	0.967543	0	0
0	0	0	30.845254	9.448707	28.22089	9.448707	2.914316E+12	2.286754E-5	43730.115057	17.135671	0.964812	0	0
0	0	0	30.7717	9.452232	28.149787	9.452232	2.778556E+12	2.269688E-5	44058.910665	17.102525	0.962992	0	0
0	0	0	30.698929	9.456291	28.079287	9.456291	2.650466E+12	2.272401E-5	44006.322502	17.114794	0.96133	0	0
0	0	0	30.625717	9.459437	28.008622	9.459437	2.527557E+12	2.253639E-5	44372.685071	17.136371	0.958362	0	0
0	0	0	30.551999	9.462887	27.937393	9.462887	2.409555E+12	2.246913E-5	44505.514021	17.095595	0.957689	0	0
0	0	0	30.479734	9.465372	27.867818	9.465372	2.299228E+12	2.217215E-5	45101.623543	17.157177	0.954326	0	0
0	0	0	30.406114	9.468852	27.796678	9.468852	2.192024E+12	2.220001E-5	45045.025668	17.077844	0.954405	0	0
0	0	0	30.332723	9.471818	27.7259	9.471818	2.090127E+12	2.211466E-5	45218.881606	17.151503	0.951002	0	0
0	0	0	30.26018	9.474732	27.655949	9.474732	1.994064E+12	2.206746E-5	45315.588019	17.094014	0.950091	0	0
0	0	0	30.186773	9.476953	27.585364	9.476953	1.901347E+12	2.180529E-5	45860.423759	17.140784	0.9474	0	0
0	0	0	30.113544	9.479792	27.514783	9.479792	1.813153E+12	2.180543E-5	45860.139495	17.121058	0.945501	0	0
0	0	0	30.041051	9.481866	27.445115	9.481866	1.729873E+12	2.157018E-5	46360.305571	17.104381	0.94471	0	0
0	0	0	29.968526	9.484033	27.375391	9.484033	1.650383E+12	2.140314E-5	46722.124532	17.148175	0.941583	0	0
0	0	0	29.896686	9.486294	27.306296	9.486294	1.575246E+12	2.131955E-5	46905.309491	17.092933	0.941227	0	0
0	0	0	29.823392	9.488923	27.235718	9.488923	1.502112E+12	2.141541E-5	46695.345377	17.157502	0.93818	0	0
0	0	0	29.751585	9.490512	27.166841	9.490512	1.433755E+12	2.112271E-5	47342.415291	17.099538	0.936954	0	0
0	0	0	29.679533	9.49295	27.097501	9.49295	1.36829E+12	2.124551E-5	47068.776193	17.155292	0.934342	0	0
0	0	0	29.607742	9.494402	27.02868	9.494402	1.306036E+12	2.095176E-5	47728.682519	17.110795	0.933075	0	0
0	0	0	29.537308	9.495989	26.961115	9.495989	1.247711E+12	2.076983E-5	48146.752248	17.121806	0.931572	0	0
0	0	0	29.464014	9.498028	26.890705	9.498028	1.189782E+12	2.08119E-5	48049.435718	17.137991	0.928841	0	0
0	0	0	29.391488	9.499469	26.821189	9.499469	1.135108E+12	2.059498E-5	48555.517754	17.095337	0.92805	0	0
0	0	0	29.318064	9.501151	26.750753	9.501151	1.082315E+12	2.052982E-5	48709.623254	17.157476	0.924607	0	0
0	0	0	29.244983	9.502486	26.680739	9.502486	1.032206E+12	2.031259E-5	49230.551155	17.090444	0.924053	0	0
0	0	0	29.169925	9.503906	26.608819	9.503906	9.831564E+11	2.014942E-5	49629.223862	17.1594	0.920887	0	0
0	0	0	29.095211	9.505304	26.537233	9.505304	9.366455E+11	2.001326E-5	49966.866278	17.096755	0.920056	0	0
0	0	0	29.020953	9.506755	26.46607	9.506755	8.925996E+11	1.995326E-5	50117.124887	17.138991	0.91784	0	0
0	0	0	28.945079	9.507901	26.393448	9.507901	8.497331E+11	1.971489E-5	50723.080567	17.117439	0.91606	0	0
0	0	0	28.869025	9.509079	26.320648	9.509079	8.088307E+11	1.952602E-5	51213.720146	17.117622	0.914358	0	0
0	0	0	28.791909	9.510445	26.246786	9.510445	7.693671E+11	1.948917E-5	51310.548516	17.148611	0.91143	0	0
0	0	0	28.71561	9.511475	26.173793	9.511475	7.322166E+11	1.926434E-5	51909.39368	17.088874	0.911192	0	0
0	0	0	28.637318	9.51283	26.098815	9.51283	6.959597E+11	1.929056E-5	51838.81411	17.155479	0.908027	0	0
0	0	0	28.558553	9.513451	26.023583	9.513451	6.612947E+11	1.879069E-5	53217.847785	17.09816	0.907116	0	0
0	0	0	28.479166	9.514754	25.947577	9.514754	6.281034E+11	1.884127E-5	53074.974774	17.147714	0.9049	0	0
0	0	0	28.397689	9.515805	25.869647	9.515805	5.957693E+11	1.871204E-5	53441.522377	17.111841	0.90312	0	0
0	0	0	28.316392	9.516467	25.791993	9.516467	5.651656E+11	1.829296E-5	54665.853351	17.130234	0.901299	0	0
0	0	0	28.232873	9.517298	25.712177	9.517298	5.353618E+11	1.80182E-5	55499.446581	17.142416	0.898806	0	0
0	0	0	28.149354	9.518201	25.632342	9.518201	5.071297E+11	1.784112E-5	56050.289014	17.099931	0.898411	0	0
0	0	0	28.064658	9.519368	25.551318	9.519368	4.800199E+11	1.793602E-5	55753.741154	17.162179	0.895047	0	0
0	0	0	27.973266	9.520199	25.464001	9.520199	4.523898E+11	1.768658E-5	56540.057413	17.088515	0.894651	0	0
0	0	0	27.884471	9.520873	25.379201	9.520873	4.270689E+11	1.734758E-5	57644.94416	17.166942	0.891327	0	0
0	0	0	27.793945	9.521944	25.292648	9.521944	4.027126E+11	1.744003E-5	57339.365199	17.102459	0.890417	0	0
0	0	0	27.704774	9.522502	25.207522	9.522502	3.800794E+11	1.704606E-5	58664.582143	17.147716	0.888043	0	0
0	0	0	27.614329	9.523133	25.121163	9.523133	3.584219E+11	1.674994E-5	59701.71191	17.130974	0.886143	0	0
0	0	0	27.522937	9.524193	25.033789	9.524193	3.377908E+11	1.698545E-5	58873.908035	17.117793	0.885035	0	0
0	0	0	27.42911	9.524531	24.944286	9.524531	3.17845E+11	1.637848E-5	61055.719421	17.144274	0.882463	0	0
0	0	0	27.331478	9.524837	24.851164	9.524837	2.983395E+11	1.572674E-5	63585.975976	17.095378	0.881632	0	0
0	0	0	27.235137	9.525803	24.7591	9.525803	2.802654E+11	1.593002E-5	62774.563583	17.161068	0.878387	0	0
0	0	0	27.136704	9.52636	24.665151	9.52636	2.629295E+11	1.565099E-5	63893.705622	17.100535	0.877477	0	0
0	0	0	27.037128	9.526949	24.570105	9.526949	2.464829E+11	1.544288E-5	64754.751054	17.147999	0.875222	0	0
0	0	0	26.935396	9.527296	24.473067	9.527296	2.307421E+11	1.491944E-5	67026.658164	17.114095	0.873757	0	0
0	0	0	26.831541	9.528241	24.373852	9.528241	2.157092E+11	1.527748E-5	65455.807862	17.125136	0.872333	0	0
0	0	0	26.725708	9.528326	24.272975	9.528326	2.013974E+11	1.438762E-5	69504.218648	17.14368	0.869444	0	0
0	0	0	26.616707	9.529229	24.168868	9.529229	1.876489E+11	1.476242E-5	67739.575317	17.101797	0.868969	0	0
0	0	0	26.506792	9.529703	24.064001	9.529703	1.747352E+11	1.451634E-5	68887.910465	17.165739	0.865843	0	0
0	0	0	26.392858	9.529914	23.955372	9.529914	1.622867E+11	1.382758E-5	72319.230822	17.097238	0.865368	0	0
0	0	0	26.277372	9.530481	23.845174	9.530481	1.505733E+11	1.37787E-5	72575.796996	17.162523	0.86244	0	0
0	0	0	26.159321	9.530807	23.732594	9.530807	1.394732E+11	1.332992E-5	75019.21253	17.097565	0.861886	0	0
0	0	0	26.038821	9.531186	23.617666	9.531186	1.289861E+11	1.29978E-5	76936.120388	17.13545	0.85967	0	0
0	0	0	25.915396	9.531711	23.499915	9.531711	1.190616E+11	1.297659E-5	77061.842264	17.126859	0.857573	0	0
0	0	0	25.788868	9.531786	23.379321	9.531786	1.096796E+11	1.209395E-5	82685.961541	17.115524	0.856583	0	0
0	0	0	25.659236	9.532248	23.255671	9.532248	1.008337E+11	1.198958E-5	83405.760113	17.150594	0.853853	0	0
0	0	0	25.527122	9.532857	23.129619	9.532857	9.255208E+10	1.227128E-5	81491.089285	17.094529	0.853497	0	0
0	0	0	25.391593	9.533309	23.000355	9.533309	8.476269E+10	1.22874E-5	81384.15929	17.154486	0.850647	0	0
0	0	0	25.25172	9.533667	22.866974	9.533667	7.741037E+10	1.211624E-5	82533.834935	17.089787	0.849737	0	0
0	0	0	25.109625	9.533416	22.731628	9.533416	7.059399E+10	1.046432E-5	95562.863335	17.142307	0.847126	0	0
0	0	0	24.9641	9.534256	22.592741	9.534256	6.423473E+10	1.157424E-5	86398.740544	17.108739	0.845622	0	0
0	0	0	24.814556	9.53433	22.450217	9.53433	5.829617E+10	1.070833E-5	93385.260908	17.116924	0.844118	0	0
0	0	0	24.661795	9.534572	22.304585	9.534572	5.27963E+10	1.035375E-5	96583.373265	17.141257	0.841546	0	0
0	0	0	24.504851	9.534929	22.154939	9.534929	4.768578E+10	1.038876E-5	96257.897118	17.087938	0.841427	0	0
0	0	0	24.342697	9.53514	22.000365	9.53514	4.292461E+10	1.000535E-5	99946.534887	17.153976	0.838024	0	0
0	0	0	24.177113	9.534826	21.842651	9.534826	3.855292E+10	8.138328E-6	122875.366572	17.081534	0.837668	0	0
0	0	0	24.006923	9.535477	21.680311	9.535477	3.452316E+10	9.061427E-6	110357.893215	17.147326	0.834937	0	0
0	0	0	23.835687	9.535876	21.517038	9.535876	3.089366E+10	9.531455E-6	104915.776714	17.100751	0.83375	0	0
0	0	0	23.660563	9.53574	21.35019	9.53574	2.75761E+10	8.029183E-6	124545.679956	17.128822	0.83197	0	0
0	0	0	23.481666	9.53615	21.179614	9.53615	2.455462E+10	8.612713E-6	116107.43158	17.119648	0.830189	0	0
0	0	0	23.302067	9.536077	21.008486	9.536077	2.185424E+10	7.39632E-6	135202.370243	17.092247	0.829239	0	0
0	0	0	23.119103	9.536602	20.834008	9.536602	1.940842E+10	8.793846E-6	113715.886391	17.138662	0.82639	0	0
0	0	0	22.93408	9.536613	20.657692	9.536613	1.721333E+10	7.854943E-6	127308.378627	17.07741	0.825955	0	0
0	0	0	22.747604	9.537169	20.479862	9.537169	1.525212E+10	1.090216E-5	91724.910949	17.141188	0.823185	0	0
0	0	0	22.557894	9.536781	20.299173	9.536781	1.348603E+10	6.911878E-6	144678.486414	17.086788	0.822512	0	0
0	0	0	22.368755	9.536845	20.118923	9.536845	1.192886E+10	6.409948E-6	156007.509667	17.117811	0.820573	0	0
0	0	0	22.179175	9.537076	19.938213	9.537076	1.054848E+10	6.885959E-6	145223.054443	17.108418	0.818713	0	0
0	0	0	21.988958	9.537149	19.756933	9.537149	9.323974E+9	6.534427E-6	153035.612068	17.093725	0.817842	0	0
0	0	0	21.798219	9.537066	19.575192	9.537066	8.238821E+9	5.328991E-6	187652.79997	17.133321	0.814914	0	0
0	0	0	21.605078	9.537517	19.391039	9.537517	7.268631E+9	8.046427E-6	124278.770831	17.080256	0.814518	0	0
0	0	0	21.41228	9.537181	19.207395	9.537181	6.414115E+9	4.644243E-6	215320.324176	17.142302	0.811788	0	0
0	0	0	21.219368	9.537517	19.023486	9.537517	5.659639E+9	6.268955E-6	159516.211268	17.071747	0.81159	0	0
0	0	0	21.027191	9.53736	18.840392	9.53736	4.996291E+9	4.434569E-6	225501.05136	17.114072	0.809295	0	0
0	0	0	20.832531	9.537685	18.654822	9.537685	4.403594E+9	6.638305E-6	150640.867056	17.082485	0.807791	0	0
0	0	0	20.636646	9.537675	18.468161	9.537675	3.878124E+9	5.719007E-6	174855.534191	17.090905	0.806169	0	0
0	0	0	20.436188	9.537769	18.277118	9.537769	3.405239E+9	6.265514E-6	159603.813668	17.116901	0.803557	0	0
0	0	0	20.237477	9.537948	18.087722	9.537948	2.993407E+9	1.03441E-5	96673.426907	17.07109	0.80328	0	0
0	0	0	20.040759	9.537727	17.900314	9.537727	2.634787E+9	4.369681E-6	228849.679407	17.126455	0.80047	0	0
