Vload_(V)	ILoad_(A)	RsLoad_(ohm)	SunsVoc_Voltage_(V)	SunsVoc_Current_(A)	Model_Voltage_(V)	Model_Current_(A)	Carrier_Density_(cm-3)	Lifetime_(s)	Inverse_Lifetime_(s-1)	(Carrier_Density+Doping)/qWni^2_(cm^2/C)	Carrier_Density_at_Vmp_(cm-3)	Lifetime_at_Vmp_(s)	Efficiency_(%)	Intensity_(suns)	Dark_IV_Voltage_(V)	Dark_IV_Current_(A)
4.041433	5.192035	0	45.062361	-0.271804	45.093918	-0.271804	8.65355E+14	7.136732E-5	14010.773153	1.521073E+16	9.666967E+13	6.853836E-5	12.54308	1.155041	0	0
4.0537	5.191098	1.770397	44.920152	0.09344	44.907098	0.09344	8.141718E+14	7.195624E-5	13896.234583	1.497069E+16	0	0	12.513142	1.152348	0	0
5.013878	5.190128	2.321985	44.771621	0.45072	44.697549	0.45072	7.634796E+14	7.256072E-5	13780.592846	1.473295E+16	0	0	12.534796	1.146906	0	0
10.101407	5.182783	3.21459	44.624691	0.784742	44.476594	0.784742	7.160048E+14	7.320604E-5	13659.224404	1.45103E+16	0	0	12.551494	1.143477	0	0
15.477756	5.17389	2.85831	44.48204	1.084191	44.25177	1.084191	6.723522E+14	7.375405E-5	13557.827202	1.430557E+16	0	0	12.536884	1.140273	0	0
20.830319	5.156331	2.353094	44.340011	1.358238	44.019528	1.358238	6.311813E+14	7.418703E-5	13478.784444	1.411249E+16	0	0	12.546234	1.134607	0	0
26.182809	5.070385	2.050809	44.199762	1.613633	43.781467	1.613633	5.9268E+14	7.463356E-5	13398.215856	1.393192E+16	0	0	12.557734	1.126096	0	0
27.047377	5.039439	2.005826	44.058418	1.853518	43.534471	1.853518	5.559547E+14	7.503931E-5	13325.835064	1.375968E+16	0	0	12.578865	1.117633	0	0
27.903011	5.005517	1.948299	43.918332	2.073879	43.28389	2.073879	5.215279E+14	7.536725E-5	13267.911522	1.359823E+16	0	0	12.597587	1.110257	0	0
28.769442	4.967741	1.878848	43.779096	2.274283	43.030805	2.274283	4.891729E+14	7.554696E-5	13236.402171	1.344649E+16	0	0	12.601181	1.101282	0	0
29.628504	4.930995	1.791302	43.644972	2.457575	42.781683	2.457575	4.596882E+14	7.57521E-5	13200.603213	1.330821E+16	0	0	12.624492	1.090669	0	0
30.491612	4.891149	1.697793	43.509901	2.628504	42.52766	2.628504	4.315926E+14	7.586445E-5	13181.095071	1.317644E+16	0	0	12.650115	1.079897	0	0
31.34999	4.852218	1.593205	43.375222	2.788509	42.270877	2.788509	4.051062E+14	7.594916E-5	13166.430425	1.305222E+16	0	0	12.669972	1.069868	0	0
32.21269	4.812939	1.479467	43.241376	2.93743	42.012818	2.93743	3.80229E+14	7.599375E-5	13158.737365	1.293555E+16	0	0	12.688133	1.060158	0	0
33.076886	4.772022	1.359137	43.113084	3.076691	41.760789	3.076691	3.576774E+14	7.619272E-5	13124.400945	1.282979E+16	0	0	12.703821	1.049649	0	0
33.931948	4.730941	1.23578	42.9778	3.206958	41.496265	3.206958	3.352069E+14	7.609191E-5	13141.814268	1.272441E+16	0	0	12.731633	1.038661	0	0
34.798163	4.683945	1.109519	42.844052	3.328291	41.232603	3.328291	3.142533E+14	7.597953E-5	13161.276138	1.262614E+16	0	0	12.7524	1.028392	0	0
35.652174	4.632776	0.983287	42.711219	3.442135	40.968786	3.442135	2.946267E+14	7.586857E-5	13180.544601	1.253409E+16	0	0	12.769003	1.018354	0	0
36.509	4.556557	0.874295	42.579758	3.546854	40.706951	3.546854	2.763094E+14	7.568066E-5	13213.288983	1.244818E+16	0	0	12.787866	1.008109	0	0
37.357656	4.438524	0.791175	42.449587	3.64444	40.446539	3.64444	2.592048E+14	7.547252E-5	13249.744895	1.236797E+16	0	0	12.807551	0.99768	0	0
38.195325	4.262027	0.735426	42.320821	3.734743	40.188349	3.734743	2.432476E+14	7.521506E-5	13295.112136	1.229313E+16	0	0	12.821062	0.987803	0	0
39.022416	4.00285	0.708977	42.192415	3.819671	39.930069	3.819671	2.282421E+14	7.494272E-5	13343.437784	1.222275E+16	0	0	12.838713	0.978189	0	0
39.797842	3.686339	0.696876	42.063257	3.899027	39.670353	3.899027	2.140178E+14	7.458504E-5	13407.437688	1.215604E+16	0	0	12.853023	0.968751	0	0
40.572703	3.308707	0.686568	41.935226	3.972238	39.413009	3.972238	2.007351E+14	7.415473E-5	13485.249619	1.209375E+16	0	0	12.874498	0.958978	0	0
41.340094	2.87118	0.677003	41.808763	4.041538	39.15774	4.041538	1.883738E+14	7.377989E-5	13553.769689	1.203578E+16	0	0	12.888497	0.949508	0	0
42.084896	2.386066	0.66668	41.682611	4.106408	38.903083	4.106408	1.76756E+14	7.336628E-5	13630.187363	1.198129E+16	0	0	12.898057	0.940094	0	0
42.806657	1.864528	0.670714	41.55801	4.16695	38.651356	4.16695	1.659447E+14	7.294683E-5	13708.569908	1.193059E+16	0	0	12.90304	0.930927	0	0
43.43473	1.361848	0.686419	41.433377	4.223431	38.399986	4.223431	1.557564E+14	7.246073E-5	13800.537574	1.188281E+16	0	0	12.909103	0.921569	0	0
43.993969	0.893496	0.69114	41.309756	4.276398	38.150609	4.276398	1.462373E+14	7.196772E-5	13895.08318	1.183816E+16	0	0	12.909173	0.912203	0	0
44.447539	0.497351	0.666977	41.187622	4.325684	37.904406	4.325684	1.373763E+14	7.145312E-5	13995.159582	1.179661E+16	0	0	12.909573	0.903077	0	0
35.64693	4.630036	0.987465	41.064688	4.372041	37.657108	4.372041	1.289744E+14	7.087544E-5	14109.232008	1.17572E+16	0	0	12.907302	0.893839	0	0
44.957688	0	0	40.941427	4.416197	37.409113	4.416197	1.210435E+14	7.030291E-5	14224.13865	1.172001E+16	0	0	12.897527	0.884976	0	0
0	0	0	40.819913	4.457502	37.164691	4.457502	1.136828E+14	6.974076E-5	14338.796092	1.168549E+16	0	0	12.886987	0.876178	0	0
0	0	0	40.698694	4.496977	36.920654	4.496977	1.067684E+14	6.921888E-5	14446.906864	1.165306E+16	0	0	12.86955	0.867387	0	0
0	0	0	40.578667	4.536064	36.677453	4.536064	1.003211E+14	6.891449E-5	14510.719603	1.162282E+16	0	0	12.841073	0.858996	0	0
0	0	0	40.458918	4.570043	36.437678	4.570043	9.426308E+13	6.829046E-5	14643.319117	1.159441E+16	0	0	12.820181	0.850573	0	0
0	0	0	40.339038	4.603137	36.197119	4.603137	8.855267E+13	6.77586E-5	14758.262082	1.156763E+16	0	0	12.793903	0.842174	0	0
0	0	0	40.220612	4.633827	35.960025	4.633827	8.324056E+13	6.719579E-5	14881.872313	1.154272E+16	0	0	12.765829	0.833871	0	0
0	0	0	40.100895	4.662328	35.721492	4.662328	7.818476E+13	6.651044E-5	15035.222608	1.1519E+16	0	0	12.735468	0.825871	0	0
0	0	0	39.982649	4.689204	35.486001	4.689204	7.348408E+13	6.58528E-5	15185.374763	1.149696E+16	0	0	12.70491	0.817792	0	0
0	0	0	39.865725	4.714707	35.253155	4.714707	6.910656E+13	6.52388E-5	15328.293898	1.147643E+16	0	0	12.67217	0.809888	0	0
0	0	0	39.749505	4.738488	35.022294	4.738488	6.50073E+13	6.458667E-5	15483.064876	1.14572E+16	0	0	12.650929	0.802001	0	0
0	0	0	39.633447	4.761381	34.79171	4.761381	6.115069E+13	6.398475E-5	15628.718069	1.143912E+16	0	0	12.604196	0.794113	0	0
0	0	0	39.517618	4.782994	34.561981	4.782994	5.752468E+13	6.337105E-5	15780.071203	1.142211E+16	0	0	12.567569	0.786369	0	0
0	0	0	39.403782	4.803025	34.336673	4.803025	5.416617E+13	6.274373E-5	15937.842833	1.140636E+16	0	0	12.527433	0.778897	0	0
0	0	0	39.289097	4.821825	34.110399	4.821825	5.097687E+13	6.204815E-5	16116.511664	1.13914E+16	0	0	12.479093	0.771561	0	0
0	0	0	39.172827	4.839758	33.881503	4.839758	4.793152E+13	6.131118E-5	16310.23389	1.137712E+16	0	0	12.436003	0.764353	0	0
0	0	0	39.060052	4.856663	33.659369	4.856663	4.514853E+13	6.066246E-5	16484.656322	1.136407E+16	0	0	12.387234	0.757136	0	0
0	0	0	38.948274	4.872427	33.439695	4.872427	4.254691E+13	5.998656E-5	16670.39889	1.135187E+16	0	0	12.340255	0.750024	0	0
0	0	0	38.836774	4.887209	33.221068	4.887209	4.009872E+13	5.927648E-5	16870.094479	1.134039E+16	0	0	12.287137	0.742959	0	0
0	0	0	38.726221	4.901266	33.004458	4.901266	3.780833E+13	5.859265E-5	17066.984865	1.132964E+16	0	0	12.234821	0.736007	0	0
0	0	0	38.61508	4.914705	32.786999	4.914705	3.563572E+13	5.790172E-5	17270.643342	1.131946E+16	0	0	12.179596	0.729102	0	0
0	0	0	38.50572	4.927466	32.573095	4.927466	3.361817E+13	5.725839E-5	17464.686582	1.130999E+16	0	0	12.126685	0.722102	0	0
0	0	0	38.395445	4.939353	32.358132	4.939353	3.169792E+13	5.652752E-5	17690.497911	1.130099E+16	0	0	12.064303	0.715261	0	0
0	0	0	38.284598	4.950903	32.142111	4.950903	2.987689E+13	5.583214E-5	17910.828852	1.129245E+16	0	0	12.005847	0.708436	0	0
0	0	0	38.174813	4.961651	31.928612	4.961651	2.817527E+13	5.510848E-5	18146.025319	1.128447E+16	0	0	11.947057	0.701763	0	0
0	0	0	38.065616	4.971744	31.716629	4.971744	2.657788E+13	5.436605E-5	18393.830745	1.127698E+16	0	0	11.882591	0.695162	0	0
0	0	0	37.956795	4.981338	31.505614	4.981338	2.507516E+13	5.362777E-5	18647.054748	1.126993E+16	0	0	11.819143	0.688753	0	0
0	0	0	37.84781	4.990723	31.294229	4.990723	2.365452E+13	5.294781E-5	18886.523202	1.126327E+16	0	0	11.752202	0.68236	0	0
0	0	0	37.739577	4.9995	31.084688	4.9995	2.232261E+13	5.224418E-5	19140.887855	1.125702E+16	0	0	11.686339	0.676103	0	0
0	0	0	37.631327	5.007972	30.875213	5.007972	2.106487E+13	5.156982E-5	19391.187037	1.125112E+16	0	0	11.61456	0.669909	0	0
0	0	0	37.522734	5.015955	30.665473	5.015955	1.987376E+13	5.085971E-5	19661.926636	1.124553E+16	0	0	11.543196	0.6637	0	0
0	0	0	37.414828	5.023386	30.457469	5.023386	1.875639E+13	5.011509E-5	19954.071012	1.124029E+16	0	0	11.473692	0.657506	0	0
0	0	0	37.305157	5.030435	30.246498	5.030435	1.768463E+13	4.93125E-5	20278.835491	1.123527E+16	0	0	11.40015	0.651465	0	0
0	0	0	37.196091	5.037482	30.036383	5.037482	1.66791E+13	4.862924E-5	20563.757186	1.123055E+16	0	0	11.327327	0.645479	0	0
0	0	0	37.087253	5.044064	29.827101	5.044064	1.573231E+13	4.79094E-5	20872.732294	1.122611E+16	0	0	11.265286	0.638934	0	0
0	0	0	36.97933	5.050438	29.619566	5.050438	1.484623E+13	4.724622E-5	21165.715637	1.122196E+16	0	0	11.191543	0.632861	0	0
0	0	0	36.870068	5.056277	29.41013	5.056277	1.399968E+13	4.646838E-5	21520.00978	1.121799E+16	0	0	11.107913	0.627131	0	0
0	0	0	36.76092	5.06187	29.20106	5.06187	1.320196E+13	4.570316E-5	21880.325189	1.121424E+16	0	0	11.028985	0.621177	0	0
0	0	0	36.651249	5.067276	28.991107	5.067276	1.244595E+13	4.495307E-5	22245.419979	1.12107E+16	0	0	10.947982	0.615367	0	0
0	0	0	36.541251	5.072567	28.780532	5.072567	1.173097E+13	4.424729E-5	22600.252576	1.120735E+16	0	0	10.86649	0.609789	0	0
0	0	0	36.430764	5.077385	28.569593	5.077385	1.105395E+13	4.344582E-5	23017.172908	1.120417E+16	0	0	10.785655	0.604139	0	0
0	0	0	36.31861	5.082204	28.355406	5.082204	1.040651E+13	4.269556E-5	23421.637457	1.120113E+16	0	0	10.695377	0.598609	0	0
0	0	0	36.207486	5.086808	28.143276	5.086808	9.802257E+12	4.197612E-5	23823.068074	1.11983E+16	0	0	10.610355	0.593111	0	0
0	0	0	36.096917	5.091151	27.932421	5.091151	9.235719E+12	4.125255E-5	24240.924099	1.119564E+16	0	0	10.525597	0.587685	0	0
0	0	0	35.986184	5.095218	27.721552	5.095218	8.701042E+12	4.049696E-5	24693.212604	1.119314E+16	0	0	10.435062	0.582386	0	0
0	0	0	35.875011	5.099263	27.509755	5.099263	8.195265E+12	3.980635E-5	25121.620381	1.119076E+16	0	0	10.340465	0.577096	0	0
0	0	0	35.763412	5.10302	27.297504	5.10302	7.717027E+12	3.906517E-5	25598.251387	1.118852E+16	0	0	10.249879	0.571917	0	0
0	0	0	35.650671	5.106611	27.083279	5.106611	7.262136E+12	3.830782E-5	26104.332338	1.118639E+16	0	0	10.159458	0.566851	0	0
0	0	0	35.538468	5.110005	26.87025	5.110005	6.835969E+12	3.755169E-5	26629.962507	1.118439E+16	0	0	10.069844	0.561784	0	0
0	0	0	35.422852	5.113342	26.650882	5.113342	6.422911E+12	3.677893E-5	27189.48333	1.118245E+16	0	0	9.967884	0.556917	0	0
0	0	0	35.308346	5.116441	26.433852	5.116441	6.038365E+12	3.599444E-5	27782.069929	1.118065E+16	0	0	9.870949	0.551995	0	0
0	0	0	35.19415	5.119591	26.217189	5.119591	5.677737E+12	3.531669E-5	28315.227126	1.117896E+16	0	0	9.777045	0.547112	0	0
0	0	0	35.078616	5.122554	25.998261	5.122554	5.334744E+12	3.459821E-5	28903.227631	1.117735E+16	0	0	9.679568	0.542285	0	0
0	0	0	34.962591	5.125095	25.779068	5.125095	5.011103E+12	3.37329E-5	29644.65353	1.117583E+16	0	0	9.571651	0.537394	0	0
0	0	0	34.845145	5.127716	25.557002	5.127716	4.703449E+12	3.295222E-5	30346.97153	1.117439E+16	0	0	9.466918	0.532503	0	0
0	0	0	34.728025	5.130312	25.335485	5.130312	4.415428E+12	3.223524E-5	31021.950828	1.117304E+16	0	0	9.36253	0.527652	0	0
0	0	0	34.609893	5.132861	25.11208	5.132861	4.142748E+12	3.154712E-5	31698.617811	1.117176E+16	0	0	9.2574	0.522754	0	0
0	0	0	34.48905	5.135092	24.884146	5.135092	3.881197E+12	3.07134E-5	32559.077385	1.117053E+16	0	0	9.145391	0.518214	0	0
0	0	0	34.368043	5.137282	24.655897	5.137282	3.635813E+12	2.99226E-5	33419.56101	1.116938E+16	0	0	9.034539	0.513444	0	0
0	0	0	34.246856	5.139438	24.427294	5.139438	3.40559E+12	2.917656E-5	34274.089121	1.11683E+16	0	0	8.926066	0.508689	0	0
0	0	0	34.124591	5.141338	24.1971	5.141338	3.18807E+12	2.833672E-5	35289.895752	1.116728E+16	0	0	8.812948	0.504022	0	0
0	0	0	34.001738	5.143248	23.965718	5.143248	2.983479E+12	2.755672E-5	36288.790664	1.116632E+16	0	0	8.695185	0.499474	0	0
0	0	0	33.876566	5.145314	23.729653	5.145314	2.788507E+12	2.689454E-5	37182.270627	1.116541E+16	0	0	8.574316	0.494863	0	0
0	0	0	33.750887	5.146928	23.493463	5.146928	2.60555E+12	2.602924E-5	38418.332029	1.116455E+16	0	0	8.454104	0.490324	0	0
0	0	0	33.623804	5.14879	23.254101	5.14879	2.432738E+12	2.534944E-5	39448.59873	1.116374E+16	0	0	8.335217	0.485825	0	0
0	0	0	33.492326	5.150462	23.0069	5.150462	2.265994E+12	2.456136E-5	40714.361773	1.116296E+16	0	0	8.213879	0.481302	0	0
0	0	0	33.362678	5.151915	22.76347	5.151915	2.112755E+12	2.372953E-5	42141.579059	1.116224E+16	0	0	8.085078	0.477002	0	0
0	0	0	33.229894	5.153396	22.5141	5.153396	1.966536E+12	2.293385E-5	43603.665161	1.116155E+16	0	0	7.957487	0.472615	0	0
0	0	0	33.097992	5.154864	22.266329	5.154864	1.831302E+12	2.220018E-5	45044.669746	1.116092E+16	0	0	7.837539	0.468132	0	0
0	0	0	32.962039	5.156476	22.01067	5.156476	1.701632E+12	2.156347E-5	46374.735769	1.116031E+16	0	0	7.71157	0.4638	0	0
0	0	0	32.825563	5.157775	21.75464	5.157775	1.580692E+12	2.079072E-5	48098.376719	1.115974E+16	0	0	7.581322	0.459557	0	0
0	0	0	32.687715	5.159248	21.49563	5.159248	1.467254E+12	2.016529E-5	49590.157489	1.115921E+16	0	0	7.450445	0.455273	0	0
0	0	0	32.545653	5.16057	21.229058	5.16057	1.358854E+12	1.946027E-5	51386.748501	1.11587E+16	0	0	7.318598	0.451094	0	0
0	0	0	32.402382	5.16169	20.960628	5.16169	1.257638E+12	1.867558E-5	53545.862202	1.115823E+16	0	0	7.183758	0.446954	0	0
0	0	0	32.257918	5.162683	20.690214	5.162683	1.163207E+12	1.785793E-5	55997.522687	1.115778E+16	0	0	7.052446	0.442935	0	0
0	0	0	32.110694	5.16381	20.414327	5.16381	1.07426E+12	1.715044E-5	58307.530205	1.115737E+16	0	0	6.922447	0.439011	0	0
0	0	0	31.962817	5.164969	20.137096	5.164969	9.91761E+11	1.651145E-5	60564.038042	1.115698E+16	0	0	6.797274	0.435063	0	0
0	0	0	31.81752	5.166035	19.864816	5.166035	9.168732E+11	1.589061E-5	62930.259241	1.115663E+16	0	0	6.669832	0.431203	0	0
0	0	0	31.660283	5.167032	19.570469	5.167032	8.421864E+11	1.51781E-5	65884.397829	1.115628E+16	0	0	6.533265	0.427511	0	0
0	0	0	31.503617	5.167901	19.277433	5.167901	7.738205E+11	1.444861E-5	69210.819122	1.115596E+16	0	0	6.396781	0.423675	0	0
0	0	0	31.34344	5.168858	18.97762	5.168858	7.096545E+11	1.379753E-5	72476.734276	1.115566E+16	0	0	6.267375	0.419831	0	0
0	0	0	31.182152	5.16982	18.67568	5.16982	6.504172E+11	1.319328E-5	75796.144823	1.115538E+16	0	0	6.137338	0.416043	0	0
0	0	0	31.017221	5.170545	18.3675	5.170545	5.94951E+11	1.247544E-5	80157.517543	1.115512E+16	0	0	5.9974	0.412439	0	0
0	0	0	30.848027	5.171356	18.051145	5.171356	5.429612E+11	1.1832E-5	84516.559882	1.115487E+16	0	0	5.867076	0.408739	0	0
0	0	0	30.6755	5.172197	17.728481	5.172197	4.946221E+11	1.12351E-5	89006.736627	1.115465E+16	0	0	5.728718	0.405287	0	0
0	0	0	30.500295	5.172893	17.401156	5.172893	4.499337E+11	1.059156E-5	94414.800576	1.115444E+16	0	0	5.591507	0.401643	0	0
0	0	0	30.323342	5.173715	17.070218	5.173715	4.088958E+11	1.005763E-5	99426.986715	1.115425E+16	0	0	5.456423	0.398262	0	0
0	0	0	30.141505	5.174589	16.73002	5.174589	3.706206E+11	9.572862E-6	104461.966681	1.115407E+16	0	0	5.328862	0.394746	0	0
0	0	0	29.957985	5.175053	16.387717	5.175053	3.356224E+11	8.905997E-6	112283.887008	1.11539E+16	0	0	5.189847	0.391405	0	0
0	0	0	29.768993	5.175858	16.034312	5.175858	3.03031E+11	8.441052E-6	118468.641684	1.115375E+16	0	0	5.07176	0.387969	0	0
0	0	0	29.576408	5.176501	15.67461	5.176501	2.730732E+11	7.921357E-6	126240.999934	1.115361E+16	0	0	4.945435	0.384501	0	0
0	0	0	29.382973	5.176942	15.313837	5.176942	2.459638E+11	7.343432E-6	136176.113493	1.115348E+16	0	0	4.804484	0.381184	0	0
0	0	0	29.183838	5.177584	14.941883	5.177584	2.208639E+11	6.887219E-6	145196.480441	1.115336E+16	0	0	4.667867	0.377844	0	0
0	0	0	28.982105	5.1781	14.565412	5.1781	1.980468E+11	6.404155E-6	156148.625192	1.115326E+16	0	0	4.53588	0.374511	0	0
0	0	0	28.775243	5.178811	14.178818	5.178811	1.770951E+11	6.034692E-6	165708.542614	1.115316E+16	0	0	4.39415	0.371291	0	0
0	0	0	28.566339	5.17928	13.78907	5.17928	1.581851E+11	5.58858E-6	178936.336269	1.115307E+16	0	0	4.260231	0.367926	0	0
0	0	0	28.354202	5.179542	13.393874	5.179542	1.410473E+11	5.087423E-6	196563.166876	1.115299E+16	0	0	4.120007	0.364818	0	0
0	0	0	28.140937	5.180356	12.994948	5.180356	1.256896E+11	4.849655E-6	206200.226695	1.115292E+16	0	0	3.986641	0.361485	0	0
0	0	0	27.923049	5.180738	12.588648	5.180738	1.117244E+11	4.456639E-6	224384.348038	1.115285E+16	0	0	3.854937	0.358361	0	0
0	0	0	27.69995	5.181189	12.172422	5.181189	9.903152E+10	4.114644E-6	243034.403745	1.115279E+16	0	0	3.717016	0.355388	0	0
0	0	0	27.475055	5.181623	11.752875	5.181623	8.769537E+10	3.795423E-6	263475.21862	1.115274E+16	0	0	3.58503	0.352287	0	0
0	0	0	27.246027	5.182034	11.32568	5.182034	7.748354E+10	3.491123E-6	286440.819464	1.115269E+16	0	0	3.446201	0.34937	0	0
0	0	0	27.013602	5.182323	10.892512	5.182323	6.833519E+10	3.170689E-6	315388.830964	1.115265E+16	0	0	3.32133	0.346285	0	0
0	0	0	26.777811	5.182854	10.452301	5.182854	6.015742E+10	2.952807E-6	338660.827918	1.115261E+16	0	0	3.193731	0.343368	0	0
0	0	0	26.540975	5.183149	10.010857	5.183149	5.292835E+10	2.684215E-6	372548.415098	1.115258E+16	0	0	3.059575	0.34046	0	0
0	0	0	26.300595	5.183606	9.562277	5.183606	4.647883E+10	2.484708E-6	402461.745218	1.115255E+16	0	0	2.934944	0.337479	0	0
0	0	0	26.057437	5.183722	9.109607	5.183722	4.075398E+10	2.209093E-6	452674.533031	1.115252E+16	0	0	2.803078	0.334506	0	0
0	0	0	25.809788	5.184057	8.647847	5.184057	3.564758E+10	2.013439E-6	496662.615933	1.11525E+16	0	0	2.685517	0.331693	0	0
0	0	0	25.560914	5.184472	8.183511	5.184472	3.116036E+10	1.856717E-6	538584.969512	1.115247E+16	0	0	2.562411	0.32884	0	0
0	0	0	25.308037	5.184813	7.711949	5.184813	2.71791E+10	1.695878E-6	589665.128981	1.115246E+16	0	0	2.432617	0.326163	0	0
0	0	0	25.051943	5.184946	7.235086	5.184946	2.366531E+10	1.504356E-6	664736.061993	1.115244E+16	0	0	2.311769	0.323222	0	0
0	0	0	24.794166	5.185367	6.75408	5.185367	2.058706E+10	1.391347E-6	718727.973385	1.115243E+16	0	0	2.195447	0.320609	0	0
0	0	0	24.533498	5.185731	6.267861	5.185731	1.788124E+10	1.27816E-6	782374.888357	1.115241E+16	0	0	2.081879	0.317892	0	0
0	0	0	24.27002	5.1858	5.777433	5.1858	1.550748E+10	1.120847E-6	892182.778875	1.11524E+16	0	0	1.970428	0.315127	0	0
0	0	0	24.001054	5.185968	5.276433	5.185968	1.340899E+10	9.959254E-7	1004091.230981	1.115239E+16	0	0	1.851766	0.312409	0	0
0	0	0	23.731483	5.186406	4.773305	5.186406	1.159069E+10	9.279064E-7	1077694.86776	1.115238E+16	0	0	1.748134	0.309788	0	0
0	0	0	23.458793	5.186614	4.265185	5.186614	1.000207E+10	8.314116E-7	1202773.748028	1.115238E+16	0	0	1.631252	0.307143	0	0
0	0	0	23.180908	5.186781	3.747533	5.186781	8.606979E+9	7.38238E-7	1354576.716998	1.115237E+16	0	0	1.534941	0.304602	0	0
0	0	0	22.901129	5.186966	3.226275	5.186966	7.398895E+9	6.577321E-7	1520375.839499	1.115236E+16	0	0	1.438367	0.301949	0	0
0	0	0	22.618735	5.18715	2.700137	5.18715	6.351399E+9	5.859523E-7	1706623.510534	1.115236E+16	0	0	1.342432	0.299415	0	0
0	0	0	22.332536	5.187369	2.166765	5.187369	5.440995E+9	5.255421E-7	1902796.992426	1.115235E+16	0	0	1.243016	0.296994	0	0
0	0	0	22.04209	5.187589	1.62547	5.187589	4.650399E+9	4.713171E-7	2121713.797462	1.115235E+16	0	0	1.150049	0.294492	0	0
0	0	0	21.74988	5.187854	1.080688	5.187854	3.97089E+9	4.279782E-7	2336567.772076	1.115235E+16	0	0	1.06671	0.291991	0	0
0	0	0	21.453994	5.188125	0.529017	5.188125	3.38394E+9	3.899925E-7	2564152.057433	1.115234E+16	0	0	0.986466	0.289578	0	0
0	0	0	21.152604	5.188211	-0.03217	5.188211	2.87518E+9	3.388588E-7	2951081.608424	1.115234E+16	0	0	0.912119	0.287084	0	0
0	0	0	20.849547	5.1885	-0.5973	5.1885	2.440711E+9	3.111061E-7	3214337.27985	1.115234E+16	0	0	0.83568	0.284711	0	0
