Vload_(V)	ILoad_(A)	RsLoad_(ohm)	SunsVoc_Voltage_(V)	SunsVoc_Current_(A)	Model_Voltage_(V)	Model_Current_(A)	Carrier_Density_(cm-3)	Lifetime_(s)	Inverse_Lifetime_(s-1)	(Carrier_Density+Doping)/qWni^2_(cm^2/C)	Carrier_Density_at_Vmp_(cm-3)	Lifetime_at_Vmp_(s)	Efficiency_(%)	Intensity_(suns)	Dark_IV_Voltage_(V)	Dark_IV_Current_(A)
4.113241	4.834222	0	44.528561	-0.18216	44.569928	-0.18216	2.811126E+14	2.525182E-5	39600.975286	3.508677E+16	3.88178E+13	2.258247E-5	10.661369	1.11683	0	0
4.258376	4.835265	-0.922862	44.385339	0.175094	44.337189	0.175094	2.608749E+14	2.523078E-5	39634.009815	3.499186E+16	0	0	10.646933	1.114404	0	0
5.209379	4.822562	5.163242	44.244616	0.505548	44.081799	0.505548	2.423669E+14	2.523025E-5	39634.870488	3.490506E+16	0	0	10.669446	1.110957	0	0
10.439813	4.816421	4.39421	44.104759	0.80695	43.807127	0.80695	2.25237E+14	2.520181E-5	39679.608312	3.482472E+16	0	0	10.67253	1.109378	0	0
16.003056	4.778737	3.958213	43.970978	1.075204	43.526295	1.075204	2.099552E+14	2.516837E-5	39732.329586	3.475305E+16	0	0	10.657667	1.106952	0	0
21.57222	4.737395	3.104799	43.840513	1.317705	43.238038	1.317705	1.960263E+14	2.511914E-5	39810.223418	3.468773E+16	0	0	10.673706	1.101567	0	0
27.128421	4.593722	2.43984	43.706226	1.547565	42.929148	1.547565	1.826312E+14	2.503938E-5	39937.034055	3.462491E+16	0	0	10.693648	1.094434	0	0
27.985096	4.561551	2.328649	43.5747	1.764748	42.610936	1.764748	1.703796E+14	2.501248E-5	39979.994391	3.456745E+16	0	0	10.710929	1.087844	0	0
28.849636	4.524572	2.217564	43.442912	1.96775	42.281551	1.96775	1.58911E+14	2.498097E-5	40030.425994	3.451366E+16	0	0	10.720622	1.081804	0	0
29.710112	4.483646	2.104305	43.309099	2.156393	41.939891	2.156393	1.480405E+14	2.491155E-5	40141.989217	3.446268E+16	0	0	10.721186	1.073985	0	0
30.569571	4.434545	1.997014	43.178307	2.328327	41.598078	2.328327	1.381215E+14	2.483712E-5	40262.280179	3.441616E+16	0	0	10.739429	1.06461	0	0
31.427372	4.377652	1.890143	43.055699	2.484816	41.267365	2.484816	1.294172E+14	2.482201E-5	40286.803622	3.437534E+16	0	0	10.766806	1.054805	0	0
32.282554	4.311647	1.786301	42.928959	2.63137	40.923606	2.63137	1.209865E+14	2.474882E-5	40405.942812	3.43358E+16	0	0	10.783223	1.045214	0	0
33.138102	4.237874	1.679064	42.799834	2.76733	40.571353	2.76733	1.129532E+14	2.462544E-5	40608.393363	3.429812E+16	0	0	10.796352	1.035832	0	0
33.988996	4.154083	1.573908	42.673371	2.894808	40.219793	2.894808	1.055957E+14	2.453458E-5	40758.780672	3.426362E+16	0	0	10.808274	1.025284	0	0
34.792504	4.059989	1.477335	42.547317	3.014136	39.865523	3.014136	9.873255E+13	2.444395E-5	40909.895317	3.423143E+16	0	0	10.823014	1.014665	0	0
35.621297	3.945277	1.382719	42.422079	3.125461	39.510318	3.125461	9.235026E+13	2.435341E-5	41061.990592	3.42015E+16	0	0	10.836768	1.004971	0	0
36.444554	3.815846	1.287588	42.298671	3.228477	39.157682	3.228477	8.646023E+13	2.42629E-5	41215.170065	3.417388E+16	0	0	10.846899	0.995492	0	0
37.317867	3.653065	1.18787	42.173923	3.325058	38.800238	3.325058	8.088384E+13	2.415063E-5	41406.769075	3.414772E+16	0	0	10.860001	0.985727	0	0
38.129258	3.450566	1.114667	42.049813	3.414947	38.44317	3.414947	7.568925E+13	2.403094E-5	41613.010146	3.412336E+16	0	0	10.868808	0.975714	0	0
38.944437	3.199817	1.053143	41.925767	3.497933	38.086357	3.497933	7.082756E+13	2.388389E-5	41869.225266	3.410056E+16	0	0	10.870257	0.966291	0	0
39.753182	2.901123	0.996839	41.805773	3.574432	37.738942	3.574432	6.641933E+13	2.375742E-5	42092.097928	3.407989E+16	0	0	10.876153	0.957179	0	0
40.527218	2.559331	0.954474	41.686873	3.646105	37.393501	3.646105	6.231971E+13	2.363574E-5	42308.808318	3.406066E+16	0	0	10.875546	0.948204	0	0
41.301152	2.162073	0.919283	41.567843	3.713231	37.047599	3.713231	5.846702E+13	2.350239E-5	42548.853326	3.404259E+16	0	0	10.88021	0.939188	0	0
42.019877	1.749115	0.900067	41.4486	3.776883	36.700241	3.776883	5.484449E+13	2.337341E-5	42783.653945	3.40256E+16	0	0	10.879602	0.929989	0	0
42.672538	1.335509	0.888437	41.329962	3.836472	36.354456	3.836472	5.146153E+13	2.32415E-5	43026.481086	3.400974E+16	0	0	10.875058	0.920949	0	0
43.227412	0.953695	0.880378	41.210555	3.892902	36.006397	3.892902	4.826597E+13	2.310504E-5	43280.598624	3.399475E+16	0	0	10.868888	0.912109	0	0
43.688362	0.612965	0.872232	41.091982	3.945394	35.661185	3.945394	4.528788E+13	2.295975E-5	43554.472816	3.398078E+16	0	0	10.865165	0.903205	0	0
33.898744	4.16604	1.58186	40.975631	3.994093	35.322369	3.994093	4.254324E+13	2.281853E-5	43824.034712	3.396791E+16	0	0	10.863245	0.894029	0	0
44.457391	0	0	40.858021	4.039774	34.981195	4.039774	3.993702E+13	2.265234E-5	44145.538898	3.395569E+16	0	0	10.857364	0.885221	0	0
0	0	0	40.742323	4.082702	34.645061	4.082702	3.752819E+13	2.250196E-5	44440.572952	3.394439E+16	0	0	10.848142	0.87678	0	0
0	0	0	40.627752	4.123038	34.312258	4.123038	3.528533E+13	2.235711E-5	44728.503562	3.393387E+16	0	0	10.830755	0.868538	0	0
0	0	0	40.514814	4.160867	33.984206	4.160867	3.320509E+13	2.222102E-5	45002.432686	3.392412E+16	0	0	10.816076	0.860041	0	0
0	0	0	40.400766	4.197493	33.652559	4.197493	3.122828E+13	2.210024E-5	45248.37343	3.391484E+16	0	0	10.804064	0.851344	0	0
0	0	0	40.288367	4.232907	33.324101	4.232907	2.939479E+13	2.20278E-5	45397.168498	3.390625E+16	0	0	10.791185	0.842895	0	0
0	0	0	40.176132	4.264477	32.999842	4.264477	2.767096E+13	2.188503E-5	45693.330392	3.389816E+16	0	0	10.766755	0.834637	0	0
0	0	0	40.064664	4.294693	32.677416	4.294693	2.605865E+13	2.176406E-5	45947.300973	3.38906E+16	0	0	10.742897	0.826403	0	0
0	0	0	39.951727	4.322831	32.352791	4.322831	2.452053E+13	2.160627E-5	46282.870803	3.388339E+16	0	0	10.719534	0.817914	0	0
0	0	0	39.842334	4.348885	32.038482	4.348885	2.311702E+13	2.146309E-5	46591.617349	3.38768E+16	0	0	10.687759	0.80968	0	0
0	0	0	39.732451	4.373572	31.723563	4.373572	2.178786E+13	2.131313E-5	46919.441112	3.387057E+16	0	0	10.653298	0.801518	0	0
0	0	0	39.623254	4.396825	31.411205	4.396825	2.054249E+13	2.116317E-5	47251.888992	3.386473E+16	0	0	10.620753	0.793436	0	0
0	0	0	39.515739	4.418634	31.104066	4.418634	1.93857E+13	2.101947E-5	47574.939489	3.38593E+16	0	0	10.583522	0.785154	0	0
0	0	0	39.408273	4.439742	30.796839	4.439742	1.829436E+13	2.089759E-5	47852.416813	3.385419E+16	0	0	10.5419	0.777088	0	0
0	0	0	39.302376	4.459316	30.495033	4.459316	1.727893E+13	2.076817E-5	48150.607582	3.384942E+16	0	0	10.498755	0.769261	0	0
0	0	0	39.195939	4.477419	30.193453	4.477419	1.631498E+13	2.060445E-5	48533.208359	3.38449E+16	0	0	10.444746	0.761658	0	0
0	0	0	39.08635	4.495138	29.883476	4.495138	1.537852E+13	2.04367E-5	48931.573799	3.384051E+16	0	0	10.395364	0.754046	0	0
0	0	0	38.98127	4.511383	29.586583	4.511383	1.453101E+13	2.028211E-5	49304.543761	3.383654E+16	0	0	10.343093	0.746578	0	0
0	0	0	38.875095	4.526963	29.287204	4.526963	1.372201E+13	2.012411E-5	49691.644621	3.383274E+16	0	0	10.292426	0.738999	0	0
0	0	0	38.769916	4.541649	28.991155	4.541649	1.296493E+13	1.996822E-5	50079.588266	3.382919E+16	0	0	10.236321	0.731986	0	0
0	0	0	38.664982	4.555576	28.696351	4.555576	1.225118E+13	1.981202E-5	50474.414594	3.382584E+16	0	0	10.178463	0.725068	0	0
0	0	0	38.560473	4.56875	28.403318	4.56875	1.157931E+13	1.965475E-5	50878.298226	3.382269E+16	0	0	10.113835	0.718191	0	0
0	0	0	38.455278	4.581306	28.109022	4.581306	1.094018E+13	1.949179E-5	51303.652353	3.38197E+16	0	0	10.048603	0.711401	0	0
0	0	0	38.351406	4.593052	27.819054	4.593052	1.034366E+13	1.932661E-5	51742.129828	3.38169E+16	0	0	9.988512	0.704691	0	0
0	0	0	38.247828	4.604412	27.529918	4.604412	9.781177E+12	1.917901E-5	52140.330102	3.381426E+16	0	0	9.923152	0.698181	0	0
0	0	0	38.142307	4.615159	27.236497	4.615159	9.239539E+12	1.900579E-5	52615.554433	3.381172E+16	0	0	9.862873	0.691598	0	0
0	0	0	38.038533	4.625091	26.948726	4.625091	8.736099E+12	1.882361E-5	53124.764336	3.380936E+16	0	0	9.788754	0.685096	0	0
0	0	0	37.935249	4.634782	26.6621	4.634782	8.262245E+12	1.866762E-5	53568.695201	3.380714E+16	0	0	9.711817	0.678753	0	0
0	0	0	37.83221	4.643735	26.377251	4.643735	7.815099E+12	1.848725E-5	54091.327943	3.380504E+16	0	0	9.63534	0.672458	0	0
0	0	0	37.730118	4.652406	26.094911	4.652406	7.39591E+12	1.833003E-5	54555.290985	3.380307E+16	0	0	9.551567	0.666195	0	0
0	0	0	37.628223	4.660464	25.814035	4.660464	6.999925E+12	1.815314E-5	55086.889918	3.380122E+16	0	0	9.462449	0.659852	0	0
0	0	0	37.525739	4.6683	25.531671	4.6683	6.623019E+12	1.798694E-5	55595.886454	3.379945E+16	0	0	9.377202	0.653692	0	0
0	0	0	37.423321	4.675653	25.250198	4.675653	6.26661E+12	1.780818E-5	56153.964317	3.379778E+16	0	0	9.288177	0.647549	0	0
0	0	0	37.321932	4.682742	24.971559	4.682742	5.932662E+12	1.764809E-5	56663.343225	3.379621E+16	0	0	9.190248	0.641206	0	0
0	0	0	37.21953	4.689454	24.690844	4.689454	5.613424E+12	1.747268E-5	57232.211409	3.379471E+16	0	0	9.09572	0.635094	0	0
0	0	0	37.116459	4.695785	24.408977	4.695785	5.309431E+12	1.728228E-5	57862.733459	3.379329E+16	0	0	8.993554	0.629079	0	0
0	0	0	37.014024	4.701907	24.128887	4.701907	5.023618E+12	1.710857E-5	58450.253626	3.379195E+16	0	0	8.882748	0.623278	0	0
0	0	0	36.91239	4.707621	23.851572	4.707621	4.755236E+12	1.692539E-5	59082.832778	3.379069E+16	0	0	8.784673	0.61727	0	0
0	0	0	36.810576	4.713081	23.574117	4.713081	4.500746E+12	1.67416E-5	59731.437386	3.37895E+16	0	0	8.675373	0.611462	0	0
0	0	0	36.707701	4.718245	23.294393	4.718245	4.257425E+12	1.654172E-5	60453.217877	3.378836E+16	0	0	8.565575	0.605765	0	0
0	0	0	36.605495	4.723403	23.016059	4.723403	4.028708E+12	1.638164E-5	61043.945607	3.378728E+16	0	0	8.452963	0.600228	0	0
0	0	0	36.503436	4.728186	22.738845	4.728186	3.812575E+12	1.620205E-5	61720.57438	3.378627E+16	0	0	8.319326	0.594938	0	0
0	0	0	36.400446	4.732613	22.459948	4.732613	3.606217E+12	1.599277E-5	62528.236037	3.37853E+16	0	0	8.204639	0.589433	0	0
0	0	0	36.298192	4.737056	22.182599	4.737056	3.412378E+12	1.582507E-5	63190.861936	3.378439E+16	0	0	8.082423	0.584064	0	0
0	0	0	36.192784	4.741247	21.897551	4.741247	3.223457E+12	1.562286E-5	64008.779056	3.378351E+16	0	0	7.965673	0.578519	0	0
0	0	0	36.089827	4.745153	21.619415	4.745153	3.049026E+12	1.542559E-5	64827.322717	3.378269E+16	0	0	7.845459	0.573133	0	0
0	0	0	35.986625	4.748947	21.340724	4.748947	2.883647E+12	1.523797E-5	65625.560766	3.378191E+16	0	0	7.69475	0.568123	0	0
0	0	0	35.882834	4.752568	21.060787	4.752568	2.72637E+12	1.504576E-5	66463.896845	3.378117E+16	0	0	7.559284	0.562937	0	0
0	0	0	35.778342	4.756034	20.779268	4.756034	2.576688E+12	1.485005E-5	67339.829131	3.378047E+16	0	0	7.421593	0.557711	0	0
0	0	0	35.674551	4.75929	20.499996	4.75929	2.436147E+12	1.465022E-5	68258.364177	3.377981E+16	0	0	7.28154	0.552413	0	0
0	0	0	35.571611	4.762406	20.223152	4.762406	2.304326E+12	1.445877E-5	69162.177456	3.37792E+16	0	0	7.136965	0.547339	0	0
0	0	0	35.467396	4.765516	19.942809	4.765516	2.178135E+12	1.428555E-5	70000.785368	3.37786E+16	0	0	6.985082	0.54244	0	0
0	0	0	35.362478	4.76831	19.661468	4.76831	2.058072E+12	1.407021E-5	71072.137068	3.377804E+16	0	0	6.833191	0.537397	0	0
0	0	0	35.256777	4.771066	19.378019	4.771066	1.943801E+12	1.386894E-5	72103.578516	3.37775E+16	0	0	6.673927	0.532435	0	0
0	0	0	35.152889	4.773543	19.100022	4.773543	1.837673E+12	1.364703E-5	73276.028166	3.377701E+16	0	0	6.525153	0.527568	0	0
0	0	0	35.048102	4.776116	18.819194	4.776116	1.736495E+12	1.346672E-5	74257.104322	3.377653E+16	0	0	6.368877	0.522765	0	0
0	0	0	34.943626	4.778485	18.539694	4.778485	1.641162E+12	1.326827E-5	75367.755142	3.377609E+16	0	0	6.202494	0.518002	0	0
0	0	0	34.838218	4.780521	18.25876	4.780521	1.55028E+12	1.300882E-5	76870.893976	3.377566E+16	0	0	6.045407	0.513143	0	0
0	0	0	34.732206	4.78268	17.975682	4.78268	1.463952E+12	1.2799E-5	78131.09269	3.377525E+16	0	0	5.879468	0.508467	0	0
0	0	0	34.626652	4.78486	17.693567	4.78486	1.382773E+12	1.262317E-5	79219.426427	3.377487E+16	0	0	5.721009	0.50384	0	0
0	0	0	34.518925	4.786654	17.407026	4.786654	1.304561E+12	1.235832E-5	80917.129602	3.377451E+16	0	0	5.553638	0.499188	0	0
0	0	0	34.410136	4.788561	17.117188	4.788561	1.230066E+12	1.213915E-5	82378.121546	3.377416E+16	0	0	5.388775	0.494664	0	0
0	0	0	34.300482	4.790467	16.824957	4.790467	1.159282E+12	1.193913E-5	83758.226019	3.377383E+16	0	0	5.219977	0.490109	0	0
0	0	0	34.191628	4.79194	16.53627	4.79194	1.093043E+12	1.164898E-5	85844.394658	3.377351E+16	0	0	5.052112	0.485641	0	0
0	0	0	34.081875	4.793819	16.243622	4.793819	1.030088E+12	1.148876E-5	87041.623702	3.377322E+16	0	0	4.880705	0.481101	0	0
0	0	0	33.97178	4.795323	15.951353	4.795323	9.705788E+11	1.124361E-5	88939.37467	3.377294E+16	0	0	4.706185	0.476816	0	0
0	0	0	33.862338	4.796774	15.66088	4.796774	9.148299E+11	1.100825E-5	90840.982279	3.377268E+16	0	0	4.532278	0.472652	0	0
0	0	0	33.751295	4.798154	15.366398	4.798154	8.615371E+11	1.076375E-5	92904.388248	3.377243E+16	0	0	4.366785	0.468311	0	0
0	0	0	33.640628	4.799738	15.072007	4.799738	8.115131E+11	1.060433E-5	94301.05886	3.377219E+16	0	0	4.207599	0.464234	0	0
0	0	0	33.528834	4.800925	14.776111	4.800925	7.63928E+11	1.033837E-5	96727.061305	3.377197E+16	0	0	4.050845	0.460189	0	0
0	0	0	33.414459	4.802331	14.472534	4.802331	7.181303E+11	1.014719E-5	98549.413869	3.377176E+16	0	0	3.884156	0.456136	0	0
0	0	0	33.299937	4.803497	14.169426	4.803497	6.750242E+11	9.899888E-6	101011.241544	3.377155E+16	0	0	3.71487	0.452083	0	0
0	0	0	33.184777	4.804694	13.864439	4.804694	6.34287E+11	9.679695E-6	103309.038992	3.377136E+16	0	0	3.549731	0.448118	0	0
0	0	0	33.069291	4.805816	13.558814	4.805816	5.959028E+11	9.453203E-6	105784.24884	3.377118E+16	0	0	3.384589	0.444216	0	0
0	0	0	32.952123	4.806906	13.248847	4.806906	5.593323E+11	9.227087E-6	108376.565933	3.377101E+16	0	0	3.22108	0.440299	0	0
0	0	0	32.833991	4.80813	12.935728	4.80813	5.247326E+11	9.062274E-6	110347.582292	3.377085E+16	0	0	3.051923	0.436485	0	0
0	0	0	32.713768	4.809096	12.618132	4.809096	4.91717E+11	8.818707E-6	113395.309655	3.377069E+16	0	0	2.887606	0.432695	0	0
0	0	0	32.593039	4.809939	12.299659	4.809939	4.606524E+11	8.548421E-6	116980.662102	3.377055E+16	0	0	2.724283	0.428961	0	0
0	0	0	32.469092	4.811114	11.971307	4.811114	4.308003E+11	8.40103E-6	119033.016893	3.377041E+16	0	0	2.562692	0.425243	0	0
0	0	0	32.344916	4.8117	11.644796	4.8117	4.028328E+11	8.059983E-6	124069.735987	3.377028E+16	0	0	2.406616	0.421517	0	0
0	0	0	32.218584	4.812629	11.31112	4.812629	3.76242E+11	7.851702E-6	127360.922153	3.377015E+16	0	0	2.248665	0.417783	0	0
0	0	0	32.091566	4.813627	10.97527	4.813627	3.512761E+11	7.686014E-6	130106.446213	3.377004E+16	0	0	2.090043	0.414289	0	0
0	0	0	31.961705	4.814465	10.632628	4.814465	3.274633E+11	7.468722E-6	133891.72144	3.376992E+16	0	0	1.942314	0.410642	0	0
0	0	0	31.832596	4.815296	10.291901	4.815296	3.053887E+11	7.271376E-6	137525.548534	3.376982E+16	0	0	1.793952	0.40698	0	0
0	0	0	31.70254	4.815919	9.949573	4.815919	2.846563E+11	7.008345E-6	142687.031436	3.376972E+16	0	0	1.653929	0.403478	0	0
0	0	0	31.564038	4.816703	9.584407	4.816703	2.641228E+11	6.793617E-6	147196.999549	3.376963E+16	0	0	1.514525	0.399919	0	0
0	0	0	31.4257	4.817443	9.219793	4.817443	2.450921E+11	6.582389E-6	151920.527504	3.376954E+16	0	0	1.38048	0.396345	0	0
0	0	0	31.286513	4.818141	8.853092	4.818141	2.273282E+11	6.370254E-6	156979.600034	3.376945E+16	0	0	1.2493	0.392994	0	0
0	0	0	31.144418	4.8187	8.479387	4.8187	2.105206E+11	6.111524E-6	163625.314243	3.376938E+16	0	0	1.129862	0.389555	0	0
0	0	0	30.999922	4.819151	8.099867	4.819151	1.947027E+11	5.821582E-6	171774.619283	3.37693E+16	0	0	1.010893	0.386109	0	0
0	0	0	30.85585	4.819897	7.719999	4.819897	1.801147E+11	5.665803E-6	176497.477578	3.376923E+16	0	0	0.902692	0.382734	0	0
0	0	0	30.709427	4.820471	7.334745	4.820471	1.664079E+11	5.453301E-6	183375.157414	3.376917E+16	0	0	0.804945	0.379311	0	0
0	0	0	30.560667	4.821045	6.943334	4.821045	1.535502E+11	5.251265E-6	190430.303848	3.376911E+16	0	0	0.703384	0.376048	0	0
0	0	0	30.412136	4.82163	6.55241	4.82163	1.417034E+11	5.071235E-6	197190.611726	3.376905E+16	0	0	0.610287	0.372705	0	0
0	0	0	30.260404	4.822204	6.153117	4.822204	1.305445E+11	4.895076E-6	204286.92293	3.3769E+16	0	0	0.524788	0.369322	0	0
0	0	0	30.105339	4.822602	5.745952	4.822602	1.200479E+11	4.655371E-6	214805.662817	3.376895E+16	0	0	0.45274	0.36613	0	0
0	0	0	29.946763	4.823111	5.328995	4.823111	1.101859E+11	4.468952E-6	223766.090096	3.376891E+16	0	0	0.382667	0.362803	0	0
0	0	0	29.785736	4.823487	4.906271	4.823487	1.010002E+11	4.239781E-6	235861.222435	3.376886E+16	0	0	0.325496	0.359795	0	0
0	0	0	29.619155	4.824034	4.468099	4.824034	9.230271E+10	4.082788E-6	244930.64293	3.376882E+16	0	0	0.271372	0.356628	0	0
0	0	0	29.450337	4.824431	4.024807	4.824431	8.425221E+10	3.877872E-6	257873.376298	3.376878E+16	0	0	0.22528	0.353444	0	0
0	0	0	29.278986	4.824952	3.574197	4.824952	7.679867E+10	3.733243E-6	267863.648469	3.376875E+16	0	0	0.190987	0.350357	0	0
0	0	0	29.105284	4.825204	3.118821	4.825204	6.991556E+10	3.493814E-6	286220.156325	3.376872E+16	0	0	0.156417	0.347365	0	0
0	0	0	28.931483	4.825794	2.661323	4.825794	6.364597E+10	3.403143E-6	293846.029046	3.376869E+16	0	0	0.126812	0.344293	0	0
0	0	0	28.754808	4.826068	2.197981	4.826068	5.784862E+10	3.197027E-6	312790.608004	3.376866E+16	0	0	0.102193	0.341453	0	0
0	0	0	28.574196	4.826374	1.724136	4.826374	5.246757E+10	3.012661E-6	331932.423364	3.376863E+16	0	0	0.088854	0.338341	0	0
0	0	0	28.391379	4.826685	1.244459	4.826685	4.753035E+10	2.841869E-6	351881.137904	3.376861E+16	0	0	0.073351	0.335413	0	0
0	0	0	28.205033	4.827184	0.754453	4.827184	4.297569E+10	2.75161E-6	363423.57152	3.376859E+16	0	0	0.056808	0.332533	0	0
0	0	0	28.016678	4.827281	0.261443	4.827281	3.88153E+10	2.51991E-6	396839.604488	3.376857E+16	0	0	0.045353	0.329772	0	0
0	0	0	27.823227	4.827576	-0.246057	4.827576	3.496121E+10	2.370459E-6	421859.252799	3.376855E+16	0	0	0.037198	0.327004	0	0
0	0	0	27.624435	4.827972	-0.76816	4.827972	3.139901E+10	2.26411E-6	441674.628532	3.376854E+16	0	0	0.027741	0.324211	0	0
0	0	0	27.422392	4.828085	-1.297127	4.828085	2.815026E+10	2.067182E-6	483750.421002	3.376852E+16	0	0	0.022069	0.321347	0	0
0	0	0	27.216461	4.82853	-1.838273	4.82853	2.518466E+10	1.993995E-6	501505.699371	3.376851E+16	0	0	0.017483	0.318618	0	0
0	0	0	27.005466	4.828622	-2.39057	4.828622	2.246988E+10	1.808085E-6	553071.350117	3.376849E+16	0	0	0.018427	0.315921	0	0
0	0	0	26.788052	4.829045	-2.961713	4.829045	1.99783E+10	1.739115E-6	575005.047946	3.376848E+16	0	0	0.01656	0.313225	0	0
0	0	0	26.569381	4.829158	-3.53427	4.829158	1.775092E+10	1.579634E-6	633057.846965	3.376847E+16	0	0	0.009366	0.310696	0	0
0	0	0	26.344763	4.829372	-4.123034	4.829372	1.572126E+10	1.460912E-6	684503.818802	3.376846E+16	0	0	0.007803	0.308047	0	0
0	0	0	26.115441	4.829533	-4.723793	4.829533	1.388831E+10	1.334888E-6	749126.238612	3.376845E+16	0	0	0.008283	0.30531	0	0
0	0	0	25.880908	4.829962	-5.339935	4.829962	1.223455E+10	1.294312E-6	772611.311346	3.376845E+16	0	0	0.006262	0.302885	0	0
0	0	0	25.642684	4.830091	-5.963837	4.830091	1.075623E+10	1.173391E-6	852230.932423	3.376844E+16	0	0	0.008837	0.300228	0	0
0	0	0	25.400196	4.830236	-6.599016	4.830236	9.434765E+9	1.066628E-6	937533.686814	3.376843E+16	0	0	0.006366	0.297706	0	0
0	0	0	25.150897	4.830375	-7.252	4.830375	8.245234E+9	9.659423E-7	1035258.520298	3.376843E+16	0	0	0.001719	0.295217	0	0
0	0	0	24.89477	4.830584	-7.923338	4.830584	7.179131E+9	8.893905E-7	1124365.496252	3.376842E+16	0	0	0.003885	0.292784	0	0
0	0	0	24.634984	4.830847	-8.604652	4.830847	6.238523E+9	8.330098E-7	1200466.112044	3.376842E+16	0	0	0.008693	0.290231	0	0
0	0	0	24.3702	4.830863	-9.297369	4.830863	5.406524E+9	7.253977E-7	1378554.076267	3.376841E+16	0	0	0.003948	0.287845	0	0
0	0	0	24.098424	4.831233	-10.010872	4.831233	4.66781E+9	7.037631E-7	1420932.741952	3.376841E+16	0	0	0.000452	0.285172	0	0
0	0	0	23.821323	4.831442	-10.737223	4.831442	4.018445E+9	6.514176E-7	1535113.562967	3.376841E+16	0	0	0.00268	0.282874	0	0
0	0	0	23.540923	4.83149	-11.471079	4.83149	3.453252E+9	5.696964E-7	1755320.83243	3.37684E+16	0	0	0.001805	0.280441	0	0
0	0	0	23.255916	4.831667	-12.217939	4.831667	2.960173E+9	5.221622E-7	1915113.8828	3.37684E+16	0	0	0.000463	0.278191	0	0
