Vload_(V)	ILoad_(A)	RsLoad_(ohm)	SunsVoc_Voltage_(V)	SunsVoc_Current_(A)	Model_Voltage_(V)	Model_Current_(A)	Carrier_Density_(cm-3)	Lifetime_(s)	Inverse_Lifetime_(s-1)	(Carrier_Density+Doping)/qWni^2_(cm^2/C)	Carrier_Density_at_Vmp_(cm-3)	Lifetime_at_Vmp_(s)	Efficiency_(%)	Intensity_(suns)	Dark_IV_Voltage_(V)	Dark_IV_Current_(A)
3.78828	4.710243	0	44.465156	-0.156506	44.459706	-0.156506	2.719729E+14	2.518196E-5	39710.846456	3.504391E+16	4.625185E+13	2.337996E-5	9.638724	1.113246	0	0
3.884209	4.711707	-0.884256	44.323093	0.188507	44.314049	0.188507	2.525255E+14	2.516535E-5	39737.077967	3.49527E+16	0	0	9.636574	1.11055	0	0
5.132191	4.710847	-1.151849	44.182158	0.511505	44.115598	0.511505	2.345663E+14	2.517386E-5	39723.659788	3.486847E+16	0	0	9.660777	1.106929	0	0
10.379656	4.687082	4.781806	44.041942	0.806232	43.871137	0.806232	2.179313E+14	2.515426E-5	39754.619272	3.479046E+16	0	0	9.675695	1.105565	0	0
15.949245	4.642735	4.237694	43.909942	1.064162	43.602618	1.064162	2.033227E+14	2.512826E-5	39795.755518	3.472195E+16	0	0	9.66341	1.103475	0	0
21.509053	4.527101	3.611979	43.77964	1.300451	43.30531	1.300451	1.898395E+14	2.508774E-5	39860.039955	3.465871E+16	0	0	9.676199	1.098466	0	0
27.069077	4.312874	2.878409	43.648065	1.519581	42.977269	1.519581	1.771109E+14	2.501308E-5	39979.023575	3.459902E+16	0	0	9.696281	1.091598	0	0
27.935057	4.269084	2.754995	43.51889	1.726596	42.626713	1.726596	1.654273E+14	2.498403E-5	40025.515884	3.454422E+16	0	0	9.710487	1.085321	0	0
28.776256	4.220751	2.637015	43.387838	1.923373	42.24706	1.923373	1.543454E+14	2.495628E-5	40070.037189	3.449225E+16	0	0	9.725226	1.079586	0	0
29.629779	4.17147	2.50971	43.25556	2.107511	41.843076	2.107511	1.438984E+14	2.49132E-5	40139.32868	3.444325E+16	0	0	9.739609	1.071977	0	0
30.487442	4.113074	2.388393	43.124654	2.276091	41.425517	2.276091	1.342439E+14	2.485133E-5	40239.257481	3.439797E+16	0	0	9.765067	1.062972	0	0
31.361661	4.048283	2.26182	43.001719	2.428583	41.014725	2.428583	1.257581E+14	2.483635E-5	40263.538297	3.435818E+16	0	0	9.793313	1.054206	0	0
32.161503	3.979673	2.14946	42.877838	2.57055	40.589078	2.57055	1.177409E+14	2.479584E-5	40329.320882	3.432058E+16	0	0	9.811406	1.045695	0	0
32.98011	3.903796	2.032189	42.749676	2.702823	40.141239	2.702823	1.099765E+14	2.468678E-5	40507.489228	3.428416E+16	0	0	9.826857	1.036857	0	0
33.797382	3.817799	1.917075	42.623426	2.827055	39.687057	2.827055	1.028218E+14	2.460337E-5	40644.821749	3.425061E+16	0	0	9.84358	1.026935	0	0
34.631804	3.71685	1.804026	42.498662	2.943186	39.227641	2.943186	9.620289E+13	2.453242E-5	40762.375361	3.421957E+16	0	0	9.867422	1.016606	0	0
35.472716	3.615133	1.675683	42.374453	3.051131	38.762568	3.051131	9.003162E+13	2.445244E-5	40895.701456	3.419062E+16	0	0	9.889503	1.006803	0	0
36.307066	3.482804	1.565019	42.252303	3.151356	38.297403	3.151356	8.434448E+13	2.438063E-5	41016.160891	3.416395E+16	0	0	9.904678	0.996952	0	0
37.13766	3.324826	1.462066	42.129858	3.244397	37.826644	3.244397	7.900034E+13	2.42853E-5	41177.167045	3.413889E+16	0	0	9.923867	0.986759	0	0
37.961419	3.130677	1.372703	42.007218	3.331849	37.349838	3.331849	7.398369E+13	2.418608E-5	41346.088756	3.411536E+16	0	0	9.942493	0.976685	0	0
38.783951	2.897372	1.293415	41.884398	3.41435	36.867267	3.41435	6.927596E+13	2.408887E-5	41512.9405	3.409328E+16	0	0	9.959884	0.966786	0	0
39.580346	2.631427	1.220429	41.762149	3.490364	36.384616	3.490364	6.488504E+13	2.396795E-5	41722.380428	3.407269E+16	0	0	9.972847	0.957254	0	0
40.361903	2.322259	1.162523	41.643642	3.560448	35.912195	3.560448	6.089213E+13	2.386402E-5	41904.084412	3.405396E+16	0	0	9.981236	0.947651	0	0
41.121316	1.981476	1.119444	41.526882	3.6253	35.444315	3.6253	5.719663E+13	2.375562E-5	42095.292181	3.403663E+16	0	0	9.983521	0.937984	0	0
41.831248	1.626091	1.086593	41.410122	3.68669	34.973654	3.68669	5.372377E+13	2.36515E-5	42280.604289	3.402035E+16	0	0	9.989676	0.928348	0	0
42.463173	1.27876	1.061264	41.294195	3.743992	34.504702	3.743992	5.04829E+13	2.354274E-5	42475.937893	3.400515E+16	0	0	9.994018	0.918921	0	0
43.031152	0.939631	1.039482	41.179542	3.797405	34.039416	3.797405	4.746874E+13	2.34324E-5	42675.949165	3.399101E+16	0	0	9.998048	0.909628	0	0
43.501414	0.639413	1.014076	41.064334	3.847665	33.571328	3.847665	4.462014E+13	2.330964E-5	42900.700307	3.397765E+16	0	0	10.000918	0.900304	0	0
43.884042	0.376589	0.986342	40.951837	3.894804	33.111646	3.894804	4.200268E+13	2.321071E-5	43083.562462	3.396538E+16	0	0	10.008761	0.890804	0	0
32.795382	3.922693	2.058137	40.83676	3.938695	32.644028	3.938695	3.94831E+13	2.305956E-5	43365.957435	3.395356E+16	0	0	10.007063	0.881568	0	0
44.402258	0	0	40.724296	3.980247	32.184219	3.980247	3.71661E+13	2.294191E-5	43588.356566	3.394269E+16	0	0	9.997562	0.872826	0	0
0	0	0	40.61255	4.019326	31.726835	4.019326	3.499795E+13	2.282547E-5	43810.712844	3.393252E+16	0	0	9.989135	0.864204	0	0
0	0	0	40.50105	4.056319	31.269933	4.056319	3.296005E+13	2.27124E-5	44028.803165	3.392297E+16	0	0	9.982194	0.855454	0	0
0	0	0	40.38973	4.092143	30.811565	4.092143	3.104332E+13	2.263144E-5	44186.315278	3.391398E+16	0	0	9.966723	0.846879	0	0
0	0	0	40.278246	4.126454	30.351632	4.126454	2.923504E+13	2.256579E-5	44314.873893	3.39055E+16	0	0	9.948836	0.838289	0	0
0	0	0	40.168983	4.157247	29.903537	4.157247	2.756464E+13	2.246119E-5	44521.231198	3.389766E+16	0	0	9.930738	0.829818	0	0
0	0	0	40.059917	4.186711	29.455558	4.186711	2.59921E+13	2.237179E-5	44699.147335	3.389029E+16	0	0	9.906803	0.821499	0	0
0	0	0	39.950834	4.213867	29.009772	4.213867	2.450874E+13	2.224911E-5	44945.62589	3.388333E+16	0	0	9.881449	0.813124	0	0
0	0	0	39.841376	4.239238	28.563973	4.239238	2.31051E+13	2.210473E-5	45239.190877	3.387675E+16	0	0	9.850972	0.805179	0	0
0	0	0	39.734351	4.263353	28.126844	4.263353	2.181019E+13	2.199183E-5	45471.437611	3.387068E+16	0	0	9.824156	0.797259	0	0
0	0	0	39.626951	4.286139	27.689091	4.286139	2.058348E+13	2.187002E-5	45724.701197	3.386492E+16	0	0	9.794849	0.789793	0	0
0	0	0	39.520939	4.307689	27.256879	4.307689	1.944012E+13	2.176096E-5	45953.855027	3.385956E+16	0	0	9.760144	0.782407	0	0
0	0	0	39.414372	4.32826	26.822899	4.32826	1.835462E+13	2.165228E-5	46184.503294	3.385447E+16	0	0	9.728102	0.775268	0	0
0	0	0	39.309357	4.347536	26.395692	4.347536	1.73441E+13	2.154757E-5	46408.952553	3.384973E+16	0	0	9.686871	0.768201	0	0
0	0	0	39.206171	4.36524	25.977375	4.36524	1.640526E+13	2.14271E-5	46669.879662	3.384533E+16	0	0	9.640103	0.761366	0	0
0	0	0	39.101564	4.382003	25.554787	4.382003	1.550525E+13	2.128579E-5	46979.70418	3.384111E+16	0	0	9.585564	0.754426	0	0
0	0	0	38.99534	4.398205	25.12616	4.398205	1.464173E+13	2.114404E-5	47294.659778	3.383706E+16	0	0	9.538637	0.747623	0	0
0	0	0	38.89253	4.413314	24.711238	4.413314	1.38517E+13	2.102098E-5	47571.530804	3.383335E+16	0	0	9.48944	0.740739	0	0
0	0	0	38.789523	4.427517	24.296769	4.427517	1.310284E+13	2.088342E-5	47884.886067	3.382984E+16	0	0	9.429091	0.733959	0	0
0	0	0	38.68833	4.44088	23.8899	4.44088	1.240652E+13	2.07546E-5	48182.093686	3.382657E+16	0	0	9.374322	0.727363	0	0
0	0	0	38.586762	4.453558	23.482425	4.453558	1.174477E+13	2.061802E-5	48501.27257	3.382347E+16	0	0	9.320792	0.720743	0	0
0	0	0	38.485585	4.465667	23.076828	4.465667	1.112061E+13	2.048884E-5	48807.065382	3.382054E+16	0	0	9.252017	0.714226	0	0
0	0	0	38.385911	4.477033	22.677834	4.477033	1.053812E+13	2.036189E-5	49111.347763	3.381781E+16	0	0	9.183298	0.707749	0	0
0	0	0	38.285143	4.487773	22.275793	4.487773	9.980204E+12	2.021486E-5	49468.550079	3.381519E+16	0	0	9.11668	0.701416	0	0
0	0	0	38.185501	4.497973	21.878532	4.497973	9.457537E+12	2.007667E-5	49809.054559	3.381274E+16	0	0	9.041966	0.694908	0	0
0	0	0	38.084635	4.507777	21.4771	4.507777	8.956282E+12	1.993326E-5	50167.400756	3.381039E+16	0	0	8.949787	0.688591	0	0
0	0	0	37.984683	4.516844	21.0806	4.516844	8.485753E+12	1.97714E-5	50578.099576	3.380819E+16	0	0	8.86417	0.682281	0	0
0	0	0	37.885793	4.525444	20.688674	4.525444	8.044527E+12	1.961572E-5	50979.509225	3.380612E+16	0	0	8.775521	0.676116	0	0
0	0	0	37.78705	4.533954	20.296645	4.533954	7.626824E+12	1.94949E-5	51295.461261	3.380416E+16	0	0	8.681466	0.669751	0	0
0	0	0	37.688536	4.541861	19.906832	4.541861	7.231681E+12	1.935285E-5	51671.98731	3.38023E+16	0	0	8.587984	0.663601	0	0
0	0	0	37.590675	4.549322	19.520266	4.549322	6.859411E+12	1.920774E-5	52062.35495	3.380056E+16	0	0	8.495208	0.657491	0	0
0	0	0	37.492292	4.556333	19.13275	4.556333	6.504451E+12	1.90435E-5	52511.36698	3.379889E+16	0	0	8.401861	0.651246	0	0
0	0	0	37.394431	4.563342	18.746352	4.563342	6.169585E+12	1.892494E-5	52840.315936	3.379732E+16	0	0	8.286028	0.645056	0	0
0	0	0	37.296799	4.569635	18.362962	4.569635	5.852668E+12	1.875623E-5	53315.618298	3.379584E+16	0	0	8.176927	0.638875	0	0
0	0	0	37.198595	4.575837	17.977139	4.575837	5.550304E+12	1.860801E-5	53740.298574	3.379442E+16	0	0	8.069523	0.632797	0	0
0	0	0	37.099575	4.581715	17.588987	4.581715	5.261227E+12	1.844556E-5	54213.582228	3.379306E+16	0	0	7.936092	0.626767	0	0
0	0	0	37.00057	4.587176	17.202017	4.587176	4.98724E+12	1.826086E-5	54761.920445	3.379178E+16	0	0	7.809677	0.620912	0	0
0	0	0	36.902105	4.592548	16.81679	4.592548	4.728888E+12	1.810513E-5	55232.952971	3.379057E+16	0	0	7.686867	0.615018	0	0
0	0	0	36.804081	4.597782	16.433179	4.597782	4.48498E+12	1.797048E-5	55646.828243	3.378942E+16	0	0	7.557946	0.609299	0	0
0	0	0	36.705355	4.60254	16.048518	4.60254	4.252032E+12	1.778977E-5	56212.085093	3.378833E+16	0	0	7.421266	0.603532	0	0
0	0	0	36.606154	4.607125	15.66235	4.607125	4.030144E+12	1.761119E-5	56782.069144	3.378729E+16	0	0	7.28458	0.59794	0	0
0	0	0	36.507313	4.611501	15.277942	4.611501	3.82057E+12	1.743522E-5	57355.164818	3.378631E+16	0	0	7.146437	0.592381	0	0
0	0	0	36.408326	4.615808	14.892806	4.615808	3.621602E+12	1.728107E-5	57866.785388	3.378537E+16	0	0	6.988189	0.58683	0	0
0	0	0	36.308194	4.619937	14.503794	4.619937	3.430871E+12	1.71194E-5	58413.257228	3.378448E+16	0	0	6.839564	0.581446	0	0
0	0	0	36.208782	4.623779	14.118326	4.623779	3.251442E+12	1.694495E-5	59014.626704	3.378364E+16	0	0	6.682316	0.576181	0	0
0	0	0	36.107376	4.627312	13.726534	4.627312	3.078076E+12	1.672502E-5	59790.651045	3.378282E+16	0	0	6.512071	0.570845	0	0
0	0	0	36.008127	4.630877	13.342152	4.630877	2.917348E+12	1.656356E-5	60373.484759	3.378207E+16	0	0	6.340862	0.565748	0	0
0	0	0	35.907832	4.634227	12.954548	4.634227	2.763448E+12	1.638126E-5	61045.372652	3.378135E+16	0	0	6.17603	0.56054	0	0
0	0	0	35.80744	4.637378	12.56719	4.637378	2.617525E+12	1.618715E-5	61777.393194	3.378066E+16	0	0	5.995856	0.555363	0	0
0	0	0	35.707161	4.640586	12.179595	4.640586	2.479458E+12	1.603948E-5	62346.156586	3.378002E+16	0	0	5.828843	0.550035	0	0
0	0	0	35.606377	4.643453	11.791493	4.643453	2.348028E+12	1.58415E-5	63125.331592	3.37794E+16	0	0	5.657801	0.544954	0	0
0	0	0	35.506131	4.646316	11.405083	4.646316	2.224211E+12	1.567798E-5	63783.725543	3.377882E+16	0	0	5.467624	0.539993	0	0
0	0	0	35.404268	4.648859	11.014012	4.648859	2.105081E+12	1.545302E-5	64712.279481	3.377826E+16	0	0	5.282992	0.535048	0	0
0	0	0	35.302487	4.651324	10.623358	4.651324	1.992418E+12	1.523787E-5	65625.987914	3.377773E+16	0	0	5.094484	0.53027	0	0
0	0	0	35.199236	4.6537	10.227427	4.6537	1.884285E+12	1.501658E-5	66593.06382	3.377723E+16	0	0	4.892771	0.525269	0	0
0	0	0	35.097765	4.655972	9.838393	4.655972	1.783734E+12	1.481026E-5	67520.749728	3.377675E+16	0	0	4.702789	0.520435	0	0
0	0	0	34.996115	4.658175	9.448796	4.658175	1.688385E+12	1.461181E-5	68437.77417	3.377631E+16	0	0	4.498401	0.515689	0	0
0	0	0	34.893713	4.6603	9.056584	4.6603	1.597482E+12	1.441315E-5	69381.077163	3.377588E+16	0	0	4.280253	0.511031	0	0
0	0	0	34.791001	4.662418	8.662996	4.662418	1.511219E+12	1.42389E-5	70230.162194	3.377548E+16	0	0	4.072266	0.506325	0	0
0	0	0	34.687766	4.664151	8.269398	4.664151	1.429209E+12	1.397236E-5	71569.882454	3.377509E+16	0	0	3.862889	0.501667	0	0
0	0	0	34.58373	4.665914	7.872438	4.665914	1.351064E+12	1.37338E-5	72813.086138	3.377472E+16	0	0	3.661769	0.497097	0	0
0	0	0	34.480055	4.667776	7.47603	4.667776	1.277439E+12	1.355471E-5	73775.115676	3.377438E+16	0	0	3.440132	0.49259	0	0
0	0	0	34.374075	4.669299	7.072809	4.669299	1.206324E+12	1.327615E-5	75323.021222	3.377405E+16	0	0	3.22968	0.488036	0	0
0	0	0	34.26643	4.671077	6.661687	4.671077	1.138141E+12	1.309453E-5	76367.736982	3.377373E+16	0	0	3.026972	0.483521	0	0
0	0	0	34.159716	4.672673	6.254898	4.672673	1.074352E+12	1.288568E-5	77605.501163	3.377343E+16	0	0	2.832676	0.479078	0	0
0	0	0	34.052479	4.67393	5.848013	4.67393	1.013851E+12	1.258075E-5	79486.486375	3.377314E+16	0	0	2.631168	0.474739	0	0
0	0	0	33.944785	4.675639	5.436502	4.675639	9.565198E+11	1.245585E-5	80283.56314	3.377287E+16	0	0	2.440732	0.470376	0	0
0	0	0	33.83513	4.676791	5.020913	4.676791	9.014749E+11	1.214309E-5	82351.329264	3.377262E+16	0	0	2.25586	0.466013	0	0
0	0	0	33.725068	4.678203	4.602032	4.678203	8.494098E+11	1.194606E-5	83709.591408	3.377237E+16	0	0	2.070683	0.461674	0	0
0	0	0	33.613829	4.679547	4.179013	4.679547	7.998427E+11	1.174156E-5	85167.538158	3.377214E+16	0	0	1.892115	0.457519	0	0
0	0	0	33.502035	4.680771	3.754513	4.680771	7.529418E+11	1.15121E-5	86865.160739	3.377192E+16	0	0	1.712445	0.453283	0	0
0	0	0	33.388362	4.68198	3.322949	4.68198	7.080714E+11	1.128893E-5	88582.345341	3.377171E+16	0	0	1.541697	0.449144	0	0
0	0	0	33.273578	4.682969	2.888504	4.682969	6.654751E+11	1.099462E-5	90953.600062	3.377151E+16	0	0	1.380273	0.44514	0	0
0	0	0	33.160134	4.683958	2.458924	4.683958	6.258941E+11	1.072979E-5	93198.484738	3.377132E+16	0	0	1.220658	0.441056	0	0
0	0	0	33.045204	4.685109	2.022598	4.685109	5.881943E+11	1.054508E-5	94830.911906	3.377115E+16	0	0	1.075239	0.437099	0	0
0	0	0	32.929375	4.686113	1.583745	4.686113	5.524967E+11	1.031731E-5	96924.520457	3.377098E+16	0	0	0.938105	0.433127	0	0
0	0	0	32.811847	4.687007	1.139157	4.687007	5.184892E+11	1.005498E-5	99453.198394	3.377082E+16	0	0	0.806434	0.429195	0	0
0	0	0	32.693584	4.68775	0.692739	4.68775	4.863814E+11	9.74387E-6	102628.629757	3.377067E+16	0	0	0.688948	0.425414	0	0
0	0	0	32.573117	4.688801	0.235864	4.688801	4.557183E+11	9.576913E-6	104417.784035	3.377053E+16	0	0	0.579498	0.421642	0	0
0	0	0	32.449904	4.689648	-0.229986	4.689648	4.263553E+11	9.328351E-6	107200.081138	3.377039E+16	0	0	0.477096	0.417853	0	0
0	0	0	32.323752	4.690323	-0.705723	4.690323	3.982506E+11	9.008667E-6	111004.215238	3.377026E+16	0	0	0.388061	0.414208	0	0
0	0	0	32.196211	4.691389	-1.189531	4.691389	3.717193E+11	8.884117E-6	112560.432924	3.377013E+16	0	0	0.319813	0.410467	0	0
0	0	0	32.06756	4.691918	-1.673781	4.691918	3.467473E+11	8.526479E-6	117281.699375	3.377001E+16	0	0	0.255835	0.40687	0	0
0	0	0	31.938941	4.692755	-2.160226	4.692755	3.234584E+11	8.334432E-6	119984.176457	3.376991E+16	0	0	0.204057	0.403137	0	0
0	0	0	31.807725	4.693294	-2.654312	4.693294	3.013104E+11	8.010681E-6	124833.327592	3.37698E+16	0	0	0.158608	0.399539	0	0
0	0	0	31.680592	4.693916	-3.13384	4.693916	2.812991E+11	7.76361E-6	128806.064652	3.376971E+16	0	0	0.123915	0.39599	0	0
0	0	0	31.543332	4.694601	-3.651769	4.694601	2.61183E+11	7.523966E-6	132908.627943	3.376961E+16	0	0	0.094727	0.39264	0	0
0	0	0	31.401286	4.695176	-4.186862	4.695176	2.418788E+11	7.233851E-6	138238.962573	3.376952E+16	0	0	0.072955	0.389082	0	0
0	0	0	31.258848	4.696023	-4.725596	4.696023	2.239539E+11	7.096579E-6	140912.961724	3.376944E+16	0	0	0.055722	0.385701	0	0
0	0	0	31.115218	4.696332	-5.264764	4.696332	2.072237E+11	6.71241E-6	148977.799511	3.376936E+16	0	0	0.043865	0.382279	0	0
0	0	0	30.968484	4.697027	-5.818606	4.697027	1.914218E+11	6.52674E-6	153215.855948	3.376929E+16	0	0	0.030788	0.378921	0	0
0	0	0	30.819822	4.697545	-6.378367	4.697545	1.766408E+11	6.268314E-6	159532.531139	3.376922E+16	0	0	0.026631	0.375738	0	0
0	0	0	30.667502	4.697948	-6.950976	4.697948	1.62679E+11	5.962027E-6	167728.20025	3.376915E+16	0	0	0.022071	0.37242	0	0
0	0	0	30.511849	4.698413	-7.536621	4.698413	1.49551E+11	5.696529E-6	175545.49626	3.376909E+16	0	0	0.015014	0.36923	0	0
0	0	0	30.353942	4.698936	-8.131249	4.698936	1.373151E+11	5.472285E-6	182739.013633	3.376903E+16	0	0	0.012711	0.365888	0	0
0	0	0	30.190073	4.699495	-8.748569	4.699495	1.256745E+11	5.269021E-6	189788.590067	3.376898E+16	0	0	0.00896	0.362713	0	0
0	0	0	30.024995	4.699752	-9.367979	4.699752	1.149456E+11	4.937087E-6	202548.595832	3.376893E+16	0	0	0.006913	0.359554	0	0
0	0	0	29.856193	4.700442	-10.005038	4.700442	1.049212E+11	4.823631E-6	207312.708575	3.376888E+16	0	0	0.000553	0.356404	0	0
0	0	0	29.685006	4.70073	-10.647704	4.70073	9.564761E+10	4.530327E-6	220734.603138	3.376884E+16	0	0	0.003793	0.353397	0	0
0	0	0	29.508592	4.70109	-11.310612	4.70109	8.694763E+10	4.280623E-6	233610.846429	3.37688E+16	0	0	0.001287	0.35031	0	0
0	0	0	29.329695	4.701342	-11.981917	4.701342	7.893298E+10	3.99572E-6	250267.783381	3.376876E+16	0	0	0.001663	0.347263	0	0
0	0	0	29.147123	4.701875	-12.669528	4.701875	7.151486E+10	3.850772E-6	259688.16409	3.376872E+16	0	0	0.002414	0.34432	0	0
0	0	0	28.960369	4.702194	-13.370968	4.702194	6.464759E+10	3.618937E-6	276324.202836	3.376869E+16	0	0	-0.00091	0.341329	0	0
0	0	0	28.771442	4.702773	-14.082983	4.702773	5.837116E+10	3.52123E-6	283991.683601	3.376866E+16	0	0	0.004704	0.338282	0	0
0	0	0	28.574659	4.70291	-14.820428	4.70291	5.248071E+10	3.22472E-6	310104.469956	3.376863E+16	0	0	-0.002816	0.335307	0	0
0	0	0	28.375377	4.703171	-15.568425	4.703171	4.712098E+10	3.002438E-6	333062.673245	3.376861E+16	0	0	0.00021	0.332411	0	0
0	0	0	28.170753	4.703516	-16.337258	4.703516	4.218663E+10	2.825873E-6	353872.935411	3.376859E+16	0	0	0.001364	0.32962	0	0
0	0	0	27.962911	4.703856	-17.118162	4.703856	3.770335E+10	2.659868E-6	375958.469559	3.376857E+16	0	0	-0.000174	0.326884	0	0
0	0	0	27.751295	4.70418	-17.913117	4.70418	3.362785E+10	2.499117E-6	400141.351344	3.376855E+16	0	0	-0.00252	0.323917	0	0
0	0	0	27.531823	4.704321	-18.735756	4.704321	2.986576E+10	2.2725E-6	440043.937666	3.376853E+16	0	0	0.001398	0.321093	0	0
0	0	0	27.308692	4.704671	-19.574204	4.704671	2.647215E+10	2.140812E-6	467112.412062	3.376851E+16	0	0	0.004983	0.318413	0	0
0	0	0	27.08071	4.704833	-20.429001	4.704833	2.340269E+10	1.949311E-6	513001.803183	3.37685E+16	0	0	-0.00018	0.315845	0	0
0	0	0	26.848104	4.70522	-21.303437	4.70522	2.063749E+10	1.851245E-6	540177.003209	3.376849E+16	0	0	0.004661	0.313037	0	0
0	0	0	26.609096	4.705518	-22.201023	4.705518	1.813614E+10	1.729379E-6	578242.394424	3.376847E+16	0	0	0.003479	0.310309	0	0
0	0	0	26.366821	4.705523	-23.107848	4.705523	1.590984E+10	1.518867E-6	658385.622094	3.376846E+16	0	0	0.003507	0.307757	0	0
0	0	0	26.120135	4.705863	-24.034739	4.705863	1.39236E+10	1.43225E-6	698202.192248	3.376845E+16	0	0	0.001468	0.30514	0	0
0	0	0	25.868729	4.705899	-24.976128	4.705899	1.215426E+10	1.260834E-6	793125.612414	3.376845E+16	0	0	0.008568	0.302492	0	0
0	0	0	25.610396	4.706041	-25.944594	4.706041	1.057012E+10	1.133321E-6	882362.304223	3.376844E+16	0	0	-0.000609	0.299988	0	0
0	0	0	25.347948	4.7065	-26.932046	4.7065	9.172013E+9	1.104109E-6	905707.92559	3.376843E+16	0	0	-0.001038	0.297507	0	0
0	0	0	25.08122	4.706558	-27.931134	4.706558	7.940443E+9	9.707914E-7	1030087.446431	3.376843E+16	0	0	-0.002326	0.29513	0	0
0	0	0	24.808039	4.706928	-28.957969	4.706928	6.850306E+9	9.311551E-7	1073934.985296	3.376842E+16	0	0	0.008417	0.292482	0	0
0	0	0	24.531935	4.706876	-29.990971	4.706876	5.9005E+9	7.896563E-7	1266373.676401	3.376842E+16	0	0	0.001975	0.290049	0	0
0	0	0	24.249574	4.707148	-31.051178	4.707148	5.065226E+9	7.373213E-7	1356260.827977	3.376841E+16	0	0	-0.000634	0.287553	0	0
0	0	0	23.961284	4.707221	-32.131309	4.707221	4.334279E+9	6.461967E-7	1547516.313806	3.376841E+16	0	0	0.000684	0.285192	0	0
0	0	0	23.669041	4.707137	-33.224372	4.707137	3.700895E+9	5.369535E-7	1862358.810934	3.376841E+16	0	0	0.002912	0.282823	0	0
0	0	0	23.374299	4.707612	-34.333607	4.707612	3.155803E+9	5.405255E-7	1850051.336738	3.37684E+16	0	0	0.001591	0.280462	0	0
0	0	0	23.073971	4.707732	-35.45951	4.707732	2.682882E+9	4.815053E-7	2076820.329429	3.37684E+16	0	0	-0.000655	0.278093	0	0
