Vload_(V)	ILoad_(A)	RsLoad_(ohm)	SunsVoc_Voltage_(V)	SunsVoc_Current_(A)	Model_Voltage_(V)	Model_Current_(A)	Carrier_Density_(cm-3)	Lifetime_(s)	Inverse_Lifetime_(s-1)	(Carrier_Density+Doping)/qWni^2_(cm^2/C)	Carrier_Density_at_Vmp_(cm-3)	Lifetime_at_Vmp_(s)	Efficiency_(%)	Intensity_(suns)	Dark_IV_Voltage_(V)	Dark_IV_Current_(A)
2.68134	5.069849	0	44.700471	-0.197979	44.741703	-0.197979	3.074086E+14	2.629586E-5	38028.643113	3.52101E+16	3.982391E+13	2.363467E-5	10.990817	1.116232	0	0
2.695067	5.070231	-0.593788	44.556138	0.178096	44.509858	0.178096	2.851797E+14	2.626982E-5	38066.36509	3.510584E+16	0	0	10.979674	1.113471	0	0
4.807281	5.061448	4.472481	44.414827	0.5299	44.250357	0.5299	2.649231E+14	2.629491E-5	38030.054119	3.501084E+16	0	0	11.004936	1.109713	0	0
10.449975	5.03824	4.500534	44.27858	0.840448	43.976784	0.840448	2.467139E+14	2.628558E-5	38043.564529	3.492544E+16	0	0	11.016087	1.108237	0	0
16.006169	4.982191	4.021188	44.146743	1.119181	43.692108	1.119181	2.302519E+14	2.626247E-5	38077.062765	3.484824E+16	0	0	11.001366	1.105922	0	0
21.578008	4.916846	3.214521	44.017095	1.374736	43.39493	1.374736	2.151057E+14	2.623173E-5	38121.688036	3.477721E+16	0	0	11.017784	1.100544	0	0
27.124438	4.768909	2.468588	43.885454	1.618175	43.076961	1.618175	2.007196E+14	2.620371E-5	38162.462052	3.470974E+16	0	0	11.040401	1.093331	0	0
27.985658	4.735744	2.351805	43.753781	1.847329	42.743834	1.847329	1.872693E+14	2.618629E-5	38187.869042	3.464666E+16	0	0	11.056581	1.087011	0	0
28.843314	4.700089	2.23345	43.62067	2.059106	42.396955	2.059106	1.745675E+14	2.612719E-5	38274.254421	3.458709E+16	0	0	11.07292	1.081433	0	0
29.705562	4.656824	2.11988	43.486432	2.259783	42.035008	2.259783	1.626121E+14	2.60759E-5	38349.550328	3.453102E+16	0	0	11.076509	1.074323	0	0
30.560884	4.608198	2.00773	43.355363	2.441724	41.672668	2.441724	1.517138E+14	2.601248E-5	38443.042583	3.447991E+16	0	0	11.102157	1.065266	0	0
31.422827	4.548873	1.899	43.226336	2.60853	41.308362	2.60853	1.416857E+14	2.593946E-5	38551.27047	3.443288E+16	0	0	11.13085	1.056241	0	0
32.272965	4.481985	1.793818	43.098223	2.762889	40.940212	2.762889	1.323732E+14	2.585609E-5	38675.576695	3.43892E+16	0	0	11.146399	1.047775	0	0
33.129958	4.404445	1.689343	42.975746	2.905417	40.579194	2.905417	1.240338E+14	2.582255E-5	38725.813874	3.435009E+16	0	0	11.166354	1.038638	0	0
33.984543	4.312846	1.589091	42.851733	3.03963	40.209714	3.03963	1.161169E+14	2.577242E-5	38801.138462	3.431296E+16	0	0	11.185925	1.028631	0	0
34.83166	4.202596	1.494883	42.722004	3.166316	39.82302	3.166316	1.083675E+14	2.565318E-5	38981.499235	3.427662E+16	0	0	11.209889	1.018274	0	0
35.687743	4.082428	1.394741	42.596505	3.28372	39.442701	3.28372	1.013566E+14	2.557068E-5	39107.272503	3.424374E+16	0	0	11.236033	1.008746	0	0
36.521792	3.913373	1.323763	42.470777	3.393305	39.059202	3.393305	9.478207E+13	2.547499E-5	39254.167201	3.42129E+16	0	0	11.252141	0.999497	0	0
37.359459	3.723955	1.249708	42.346389	3.494882	38.677276	3.494882	8.869235E+13	2.537566E-5	39407.82443	3.418434E+16	0	0	11.267022	0.989674	0	0
38.189725	3.500832	1.178698	42.222621	3.58897	38.295928	3.58897	8.301708E+13	2.526101E-5	39586.694918	3.415773E+16	0	0	11.286294	0.979684	0	0
39.001615	3.23752	1.120013	42.098723	3.67687	37.912994	3.67687	7.769573E+13	2.513365E-5	39787.290236	3.413277E+16	0	0	11.301576	0.970005	0	0
39.812866	2.930204	1.063378	41.977324	3.758546	37.535494	3.758546	7.280948E+13	2.502002E-5	39967.990232	3.410986E+16	0	0	11.314189	0.960581	0	0
40.601645	2.583431	1.015236	41.854684	3.834713	37.154708	3.834713	6.818234E+13	2.487482E-5	40201.282775	3.408815E+16	0	0	11.325291	0.951117	0	0
41.370408	2.193663	0.97948	41.733807	3.904699	36.779318	3.904699	6.390711E+13	2.471555E-5	40460.353923	3.40681E+16	0	0	11.335944	0.941334	0	0
42.154361	1.7433	0.959575	41.616345	3.970473	36.411667	3.970473	6.000752E+13	2.459586E-5	40657.236843	3.404982E+16	0	0	11.3464	0.93187	0	0
42.75491	1.371079	0.943469	41.498556	4.032107	36.043293	4.032107	5.633418E+13	2.446162E-5	40880.357291	3.403259E+16	0	0	11.353874	0.92243	0	0
43.361738	0.9583	0.935853	41.381077	4.089982	35.675737	4.089982	5.289291E+13	2.432389E-5	41111.833093	3.401645E+16	0	0	11.359367	0.913093	0	0
43.807839	0.637599	0.922694	41.262912	4.144789	35.306026	4.144789	4.964214E+13	2.41815E-5	41353.922374	3.40012E+16	0	0	11.356401	0.903973	0	0
33.460736	4.371528	1.64901	41.14496	4.196076	34.937422	4.196076	4.659521E+13	2.402953E-5	41615.464609	3.398691E+16	0	0	11.364527	0.894317	0	0
44.626433	0	0	41.02789	4.244125	34.57164	4.244125	4.375491E+13	2.387782E-5	41879.870692	3.397359E+16	0	0	11.372717	0.885069	0	0
0	0	0	40.916128	4.287491	34.222602	4.287491	4.120419E+13	2.373223E-5	42136.786483	3.396163E+16	0	0	11.373967	0.876259	0	0
0	0	0	40.800675	4.329104	33.863501	4.329104	3.872444E+13	2.355696E-5	42450.300061	3.395E+16	0	0	11.368706	0.867609	0	0
0	0	0	40.687901	4.368373	33.511679	4.368373	3.644565E+13	2.341185E-5	42713.414927	3.393931E+16	0	0	11.36383	0.858911	0	0
0	0	0	40.574881	4.406614	33.157792	4.406614	3.429581E+13	2.330109E-5	42916.450296	3.392923E+16	0	0	11.353984	0.850134	0	0
0	0	0	40.463005	4.443069	32.80685	4.443069	3.229209E+13	2.321582E-5	43074.083202	3.391983E+16	0	0	11.343588	0.8415	0	0
0	0	0	40.350427	4.475605	32.458077	4.475605	3.039346E+13	2.30472E-5	43389.216507	3.391093E+16	0	0	11.334075	0.833129	0	0
0	0	0	40.238927	4.507251	32.111106	4.507251	2.862263E+13	2.292523E-5	43620.053578	3.390262E+16	0	0	11.323981	0.82487	0	0
0	0	0	40.127165	4.53659	31.765177	4.53659	2.69508E+13	2.277385E-5	43910.012479	3.389478E+16	0	0	11.306739	0.816826	0	0
0	0	0	40.016825	4.564045	31.424193	4.564045	2.539571E+13	2.262459E-5	44199.687404	3.388749E+16	0	0	11.288369	0.808623	0	0
0	0	0	39.905766	4.589659	31.082684	4.589659	2.392079E+13	2.244735E-5	44548.690745	3.388057E+16	0	0	11.270745	0.80066	0	0
0	0	0	39.794723	4.614133	30.74142	4.614133	2.253147E+13	2.22791E-5	44885.111969	3.387406E+16	0	0	11.246385	0.792808	0	0
0	0	0	39.685019	4.636947	30.405096	4.636947	2.123792E+13	2.210674E-5	45235.062319	3.386799E+16	0	0	11.22325	0.785275	0	0
0	0	0	39.576361	4.659062	30.071195	4.659062	2.002973E+13	2.197157E-5	45513.367563	3.386233E+16	0	0	11.198772	0.777718	0	0
0	0	0	39.468357	4.67959	29.740623	4.67959	1.889674E+13	2.181908E-5	45831.454801	3.385701E+16	0	0	11.173308	0.770201	0	0
0	0	0	39.360842	4.698661	29.412864	4.698661	1.783239E+13	2.164799E-5	46193.662918	3.385202E+16	0	0	11.14391	0.763163	0	0
0	0	0	39.25421	4.716783	29.088053	4.716783	1.683586E+13	2.148728E-5	46539.150739	3.384735E+16	0	0	11.112181	0.756037	0	0
0	0	0	39.147887	4.733846	28.765018	4.733846	1.589756E+13	2.132013E-5	46904.019218	3.384295E+16	0	0	11.076017	0.748959	0	0
0	0	0	39.040389	4.750066	28.439394	4.750066	1.500192E+13	2.113947E-5	47304.865475	3.383875E+16	0	0	11.040522	0.741881	0	0
0	0	0	38.93276	4.765427	28.114121	4.765427	1.415565E+13	2.095349E-5	47724.743209	3.383478E+16	0	0	11.004381	0.734987	0	0
0	0	0	38.827386	4.779851	27.795935	4.779851	1.337328E+13	2.077999E-5	48123.209703	3.383111E+16	0	0	10.964494	0.728029	0	0
0	0	0	38.722909	4.793243	27.48152	4.793243	1.26402E+13	2.059185E-5	48562.900817	3.382767E+16	0	0	10.918982	0.721342	0	0
0	0	0	38.617159	4.806352	27.163316	4.806352	1.193903E+13	2.041722E-5	48978.262272	3.382438E+16	0	0	10.879533	0.714399	0	0
0	0	0	38.513532	4.818603	26.85198	4.818603	1.128963E+13	2.024807E-5	49387.42	3.382134E+16	0	0	10.832298	0.707696	0	0
0	0	0	38.408549	4.830218	26.537604	4.830218	1.066769E+13	2.005991E-5	49850.678484	3.381842E+16	0	0	10.782735	0.701161	0	0
0	0	0	38.304318	4.841041	26.226382	4.841041	1.008405E+13	1.985937E-5	50354.075482	3.381568E+16	0	0	10.730285	0.694626	0	0
0	0	0	38.199613	4.851576	25.913785	4.851576	9.529864E+12	1.967387E-5	50828.834683	3.381308E+16	0	0	10.678356	0.688098	0	0
0	0	0	38.095333	4.86138	25.603443	4.86138	9.008161E+12	1.947142E-5	51357.331008	3.381064E+16	0	0	10.624728	0.681866	0	0
0	0	0	37.990922	4.870891	25.292777	4.870891	8.514384E+12	1.928384E-5	51856.885583	3.380832E+16	0	0	10.566312	0.675482	0	0
0	0	0	37.887785	4.879606	24.987002	4.879606	8.053182E+12	1.907479E-5	52425.203782	3.380616E+16	0	0	10.506165	0.66933	0	0
0	0	0	37.78455	4.888358	24.680213	4.888358	7.616532E+12	1.89106E-5	52880.397708	3.380411E+16	0	0	10.445552	0.66309	0	0
0	0	0	37.680858	4.896258	24.373837	4.896258	7.201755E+12	1.869449E-5	53491.683716	3.380216E+16	0	0	10.380246	0.656898	0	0
0	0	0	37.57857	4.903853	24.071584	4.903853	6.814712E+12	1.849919E-5	54056.432232	3.380035E+16	0	0	10.316764	0.650658	0	0
0	0	0	37.4738	4.91097	23.763267	4.91097	6.439811E+12	1.826454E-5	54750.895896	3.379859E+16	0	0	10.239975	0.644537	0	0
0	0	0	37.370467	4.918253	23.457912	4.918253	6.090243E+12	1.810295E-5	55239.623298	3.379695E+16	0	0	10.17665	0.637826	0	0
0	0	0	37.266824	4.924782	23.153325	4.924782	5.75867E+12	1.78877E-5	55904.337121	3.37954E+16	0	0	10.101755	0.631786	0	0
0	0	0	37.162837	4.931353	22.847181	4.931353	5.444126E+12	1.771305E-5	56455.537637	3.379392E+16	0	0	10.030155	0.625721	0	0
0	0	0	37.056613	4.937138	22.536672	4.937138	5.140533E+12	1.745438E-5	57292.220131	3.37925E+16	0	0	9.953667	0.61964	0	0
0	0	0	36.951565	4.942968	22.228845	4.942968	4.856944E+12	1.724923E-5	57973.597539	3.379117E+16	0	0	9.872036	0.613911	0	0
0	0	0	36.846648	4.948477	21.921911	4.948477	4.589313E+12	1.703852E-5	58690.540808	3.378991E+16	0	0	9.789177	0.608206	0	0
0	0	0	36.742008	4.953726	21.616128	4.953726	4.337071E+12	1.68298E-5	59418.424366	3.378873E+16	0	0	9.700886	0.602564	0	0
0	0	0	36.635898	4.95863	21.306939	4.95863	4.095431E+12	1.659295E-5	60266.56244	3.37876E+16	0	0	9.612523	0.597018	0	0
0	0	0	36.530344	4.963438	20.999221	4.963438	3.868407E+12	1.638129E-5	61045.258804	3.378653E+16	0	0	9.521125	0.591432	0	0
0	0	0	36.42412	4.968004	20.690047	4.968004	3.65264E+12	1.616106E-5	61877.119929	3.378552E+16	0	0	9.429897	0.585934	0	0
0	0	0	36.31716	4.972282	20.37941	4.972282	3.447532E+12	1.592227E-5	62805.11348	3.378456E+16	0	0	9.333706	0.580604	0	0
0	0	0	36.210397	4.97643	20.06941	4.97643	3.254281E+12	1.569712E-5	63705.94182	3.378365E+16	0	0	9.23556	0.575345	0	0
0	0	0	36.100449	4.980595	19.75018	4.980595	3.066576E+12	1.548199E-5	64591.168203	3.378277E+16	0	0	9.134965	0.570119	0	0
0	0	0	35.99264	4.984001	19.439097	4.984001	2.893036E+12	1.518536E-5	65852.886354	3.378196E+16	0	0	9.037731	0.56482	0	0
0	0	0	35.88408	4.987823	19.124264	4.987823	2.728206E+12	1.498737E-5	66722.829759	3.378118E+16	0	0	8.927036	0.559729	0	0
0	0	0	35.7757	4.991188	18.811187	4.991188	2.573013E+12	1.473947E-5	67845.02825	3.378046E+16	0	0	8.821129	0.554558	0	0
0	0	0	35.666144	4.994423	18.495019	4.994423	2.425103E+12	1.448808E-5	69022.247347	3.377976E+16	0	0	8.712402	0.549507	0	0
0	0	0	35.556212	4.997563	18.177884	4.997563	2.285229E+12	1.424538E-5	70198.219987	3.377911E+16	0	0	8.596096	0.544608	0	0
0	0	0	35.446247	5.0006	17.860771	5.0006	2.153383E+12	1.40122E-5	71366.36537	3.377849E+16	0	0	8.483355	0.539556	0	0
0	0	0	35.336021	5.003367	17.543651	5.003367	2.028854E+12	1.375133E-5	72720.234563	3.37779E+16	0	0	8.366218	0.534521	0	0
0	0	0	35.22225	5.005993	17.216929	5.005993	1.907867E+12	1.346321E-5	74276.47995	3.377734E+16	0	0	8.251547	0.52967	0	0
0	0	0	35.109557	5.008687	16.892758	5.008687	1.795138E+12	1.322565E-5	75610.636714	3.377681E+16	0	0	8.128628	0.524874	0	0
0	0	0	34.997485	5.011235	16.57064	5.011235	1.689636E+12	1.298944E-5	76985.640001	3.377631E+16	0	0	8.008601	0.519966	0	0
0	0	0	34.883992	5.013472	16.245501	5.013472	1.589111E+12	1.270153E-5	78730.686507	3.377584E+16	0	0	7.878463	0.515298	0	0
0	0	0	34.770287	5.015822	15.919168	5.015822	1.494395E+12	1.246389E-5	80231.799035	3.37754E+16	0	0	7.745386	0.510542	0	0
0	0	0	34.655226	5.01789	15.589925	5.01789	1.404293E+12	1.217861E-5	82111.169193	3.377497E+16	0	0	7.616233	0.505906	0	0
0	0	0	34.539397	5.019941	15.258433	5.019941	1.319075E+12	1.190962E-5	83965.751342	3.377457E+16	0	0	7.48342	0.501334	0	0
0	0	0	34.422408	5.02189	14.923922	5.02189	1.238252E+12	1.163431E-5	85952.677284	3.37742E+16	0	0	7.347279	0.496682	0	0
0	0	0	34.303002	5.023739	14.582886	5.023739	1.160862E+12	1.134437E-5	88149.462201	3.377383E+16	0	0	7.215905	0.492149	0	0
0	0	0	34.183073	5.025502	14.240565	5.025502	1.088001E+12	1.105525E-5	90454.751652	3.377349E+16	0	0	7.071886	0.487752	0	0
0	0	0	34.063062	5.027266	13.897865	5.027266	1.019667E+12	1.079005E-5	92678.006881	3.377317E+16	0	0	6.928675	0.483268	0	0
0	0	0	33.94199	5.02912	13.55168	5.02912	9.55076E+11	1.056643E-5	94639.359331	3.377287E+16	0	0	6.788213	0.478855	0	0
0	0	0	33.819562	5.030652	13.202854	5.030652	8.939209E+11	1.027654E-5	97309.043556	3.377258E+16	0	0	6.642158	0.474522	0	0
0	0	0	33.69653	5.032162	12.852297	5.032162	8.364079E+11	1.000062E-5	99993.78922	3.377231E+16	0	0	6.493527	0.470237	0	0
0	0	0	33.571357	5.033689	12.495547	5.033689	7.816901E+11	9.740905E-6	102659.864659	3.377205E+16	0	0	6.34946	0.465784	0	0
0	0	0	33.446022	5.035074	12.138798	5.035074	7.304871E+11	9.465576E-6	105645.972911	3.377181E+16	0	0	6.198313	0.461746	0	0
0	0	0	33.316227	5.036443	11.769509	5.036443	6.809943E+11	9.185864E-6	108862.921449	3.377158E+16	0	0	6.04659	0.457645	0	0
0	0	0	33.186595	5.037879	11.400259	5.037879	6.349105E+11	8.948953E-6	111744.919922	3.377137E+16	0	0	5.89705	0.453551	0	0
0	0	0	33.056032	5.039063	11.029374	5.039063	5.916472E+11	8.659654E-6	115478.058937	3.377116E+16	0	0	5.750224	0.449569	0	0
0	0	0	32.922595	5.040161	10.650696	5.040161	5.504755E+11	8.355214E-6	119685.7491	3.377097E+16	0	0	5.603981	0.445548	0	0
0	0	0	32.787344	5.041378	10.266307	5.041378	5.11667E+11	8.097993E-6	123487.388371	3.377079E+16	0	0	5.45031	0.441582	0	0
0	0	0	32.650917	5.042454	9.879138	5.042454	4.752921E+11	7.817698E-6	127914.89365	3.377062E+16	0	0	5.294522	0.437839	0	0
0	0	0	32.511795	5.043507	9.484413	5.043507	4.408601E+11	7.541285E-6	132603.40166	3.377046E+16	0	0	5.134439	0.434049	0	0
0	0	0	32.369128	5.044521	9.079828	5.044521	4.081397E+11	7.261016E-6	137721.770079	3.37703E+16	0	0	4.977269	0.430227	0	0
0	0	0	32.225334	5.045276	8.673186	5.045276	3.776175E+11	6.924495E-6	144414.871672	3.377016E+16	0	0	4.826429	0.426492	0	0
0	0	0	32.078486	5.046351	8.256391	5.046351	3.488013E+11	6.688831E-6	149502.954275	3.377002E+16	0	0	4.671089	0.422742	0	0
0	0	0	31.929841	5.047399	7.834576	5.047399	3.218712E+11	6.460393E-6	154789.346722	3.37699E+16	0	0	4.525994	0.418943	0	0
0	0	0	31.77819	5.04812	7.405796	5.04812	2.965381E+11	6.149469E-6	162615.679411	3.376978E+16	0	0	4.366711	0.415273	0	0
0	0	0	31.62961	5.049094	6.984319	5.049094	2.736527E+11	5.941102E-6	168318.945377	3.376967E+16	0	0	4.204693	0.41161	0	0
0	0	0	31.468518	5.050051	6.527719	5.050051	2.508311E+11	5.708836E-6	175167.064915	3.376956E+16	0	0	4.045216	0.408003	0	0
0	0	0	31.304992	5.050682	6.065809	5.050682	2.296104E+11	5.397874E-6	185258.137444	3.376947E+16	0	0	3.884777	0.404404	0	0
0	0	0	31.140192	5.051582	5.598886	5.051582	2.100402E+11	5.181297E-6	193001.876081	3.376937E+16	0	0	3.719806	0.400718	0	0
0	0	0	30.971471	5.052202	5.122293	5.052202	1.917312E+11	4.89574E-6	204259.224312	3.376929E+16	0	0	3.568323	0.397159	0	0
0	0	0	30.798733	5.052867	4.634116	5.052867	1.746384E+11	4.633797E-6	215805.733539	3.376921E+16	0	0	3.407196	0.393672	0	0
0	0	0	30.62258	5.053554	4.136158	5.053554	1.587762E+11	4.390539E-6	227762.481402	3.376913E+16	0	0	3.24366	0.390256	0	0
0	0	0	30.444826	5.054061	3.634574	5.054061	1.442297E+11	4.116408E-6	242930.222242	3.376906E+16	0	0	3.081371	0.386769	0	0
0	0	0	30.264263	5.054894	3.12329	5.054894	1.308172E+11	3.941546E-6	253707.539002	3.3769E+16	0	0	2.924936	0.383234	0	0
0	0	0	30.079421	5.055463	2.601319	5.055463	1.183777E+11	3.707742E-6	269705.946107	3.376894E+16	0	0	2.772291	0.379835	0	0
0	0	0	29.890919	5.056003	2.069156	5.056003	1.069094E+11	3.479259E-6	287417.500013	3.376889E+16	0	0	2.615431	0.376595	0	0
0	0	0	29.697827	5.056532	1.524096	5.056532	9.631283E+10	3.258967E-6	306845.675535	3.376884E+16	0	0	2.464422	0.373212	0	0
0	0	0	29.498316	5.057269	0.959764	5.057269	8.646599E+10	3.097207E-6	322871.568528	3.376879E+16	0	0	2.311923	0.369884	0	0
0	0	0	29.294198	5.057692	0.384189	5.057692	7.74328E+10	2.87001E-6	348430.863233	3.376875E+16	0	0	2.15367	0.366637	0	0
0	0	0	29.087026	5.058311	-0.201163	5.058311	6.922891E+10	2.703601E-6	369877.053541	3.376871E+16	0	0	2.014498	0.363237	0	0
0	0	0	28.87613	5.058694	-0.795683	5.058694	6.176972E+10	2.495114E-6	400783.279882	3.376868E+16	0	0	1.868509	0.360085	0	0
0	0	0	28.662146	5.05938	-1.400734	5.05938	5.502232E+10	2.368267E-6	422249.741003	3.376865E+16	0	0	1.726542	0.356838	0	0
0	0	0	28.44287	5.059763	-2.018929	5.059763	4.887194E+10	2.183386E-6	458004.157856	3.376862E+16	0	0	1.593177	0.353686	0	0
0	0	0	28.221029	5.060045	-2.643771	5.060045	4.334892E+10	1.992271E-6	501939.682689	3.376859E+16	0	0	1.461175	0.350613	0	0
0	0	0	27.992769	5.060574	-3.288218	5.060574	3.831684E+10	1.861395E-6	537231.598236	3.376857E+16	0	0	1.336614	0.347525	0	0
0	0	0	27.761176	5.060911	-3.940916	5.060911	3.380795E+10	1.70441E-6	586713.126746	3.376855E+16	0	0	1.213834	0.344381	0	0
0	0	0	27.520518	5.061356	-4.619817	5.061356	2.96838E+10	1.574802E-6	635000.485234	3.376853E+16	0	0	1.094659	0.341357	0	0
0	0	0	27.277949	5.061794	-5.304127	5.061794	2.603584E+10	1.456514E-6	686570.94651	3.376851E+16	0	0	0.988986	0.338317	0	0
0	0	0	27.032162	5.061969	-5.995832	5.061969	2.27965E+10	1.303565E-6	767126.989656	3.37685E+16	0	0	0.882124	0.335268	0	0
0	0	0	26.783892	5.06247	-6.696699	5.06247	1.993341E+10	1.217154E-6	821588.683439	3.376848E+16	0	0	0.78621	0.332356	0	0
0	0	0	26.532028	5.062785	-7.40651	5.062785	1.739609E+10	1.109592E-6	901232.345952	3.376847E+16	0	0	0.692581	0.329547	0	0
0	0	0	26.276015	5.06315	-8.128379	5.06315	1.514772E+10	1.018907E-6	981443.449664	3.376846E+16	0	0	0.606521	0.326587	0	0
0	0	0	26.016964	5.063342	-8.857654	5.063342	1.316831E+10	9.118079E-7	1096722.267513	3.376845E+16	0	0	0.530837	0.323714	0	0
0	0	0	25.753405	5.063702	-9.60081	5.063702	1.141968E+10	8.370178E-7	1194717.746173	3.376844E+16	0	0	0.463469	0.320969	0	0
0	0	0	25.489029	5.063904	-10.345216	5.063904	9.898885E+9	7.502656E-7	1332861.241757	3.376843E+16	0	0	0.398428	0.318288	0	0
0	0	0	25.221859	5.064225	-11.098357	5.064225	8.567671E+9	6.863691E-7	1456942.145005	3.376843E+16	0	0	0.333942	0.315543	0	0
0	0	0	24.949545	5.064253	-11.863896	5.064253	7.394883E+9	5.954095E-7	1679516.249403	3.376842E+16	0	0	0.286148	0.31283	0	0
0	0	0	24.670516	5.064686	-12.65129	5.064686	6.359511E+9	5.54965E-7	1801915.592879	3.376842E+16	0	0	0.241161	0.310156	0	0
0	0	0	24.390214	5.064759	-13.439665	5.064759	5.465337E+9	4.837924E-7	2067002.411794	3.376841E+16	0	0	0.209848	0.307451	0	0
0	0	0	24.103198	5.065141	-14.249265	5.065141	4.679873E+9	4.47893E-7	2232676.232162	3.376841E+16	0	0	0.171706	0.304826	0	0
0	0	0	23.809959	5.065136	-15.073461	5.065136	3.993834E+9	3.817891E-7	2619246.79356	3.376841E+16	0	0	0.140866	0.302225	0	0
0	0	0	23.515756	5.065405	-15.902506	5.065405	3.406589E+9	3.454234E-7	2894997.705589	3.37684E+16	0	0	0.119188	0.299719	0	0
0	0	0	23.218024	5.065731	-16.74197	5.065731	2.900155E+9	3.17351E-7	3151084.893966	3.37684E+16	0	0	0.09376	0.297165	0	0
0	0	0	22.913824	5.065793	-17.597575	5.065793	2.46039E+9	2.733375E-7	3658480.156968	3.37684E+16	0	0	0.084658	0.294628	0	0
0	0	0	22.606864	5.066018	-18.462274	5.066018	2.084196E+9	2.451317E-7	4079439.925933	3.37684E+16	0	0	0.067167	0.292122	0	0
0	0	0	22.295885	5.066367	-19.339335	5.066367	1.761691E+9	2.279294E-7	4387323.879516	3.37684E+16	0	0	0.053761	0.289553	0	0
0	0	0	21.979647	5.066265	-20.227516	5.066265	1.484863E+9	1.866944E-7	5356346.579465	3.37684E+16	0	0	0.04626	0.287199	0	0
0	0	0	21.659896	5.066721	-21.130243	5.066721	1.24916E+9	1.799084E-7	5558383.864918	3.376839E+16	0	0	0.038195	0.284837	0	0
0	0	0	21.336683	5.066906	-22.040503	5.066906	1.048907E+9	1.605864E-7	6227176.955547	3.376839E+16	0	0	0.021951	0.282467	0	0
0	0	0	21.009075	5.066816	-22.960769	5.066816	8.786673E+8	1.305372E-7	7660650.201524	3.376839E+16	0	0	0.027095	0.280033	0	0
0	0	0	20.679083	5.067142	-23.891377	5.067142	7.351093E+8	1.223577E-7	8172758.670688	3.376839E+16	0	0	0.023663	0.277847	0	0
