Vload_(V)	ILoad_(A)	RsLoad_(ohm)	SunsVoc_Voltage_(V)	SunsVoc_Current_(A)	Model_Voltage_(V)	Model_Current_(A)	Carrier_Density_(cm-3)	Lifetime_(s)	Inverse_Lifetime_(s-1)	(Carrier_Density+Doping)/qWni^2_(cm^2/C)	Carrier_Density_at_Vmp_(cm-3)	Lifetime_at_Vmp_(s)	Efficiency_(%)	Intensity_(suns)	Dark_IV_Voltage_(V)	Dark_IV_Current_(A)
3.023975	4.567742	0	44.429038	-0.076401	44.384651	-0.076401	2.668956E+14	2.589636E-5	38615.351801	3.502009E+16	8.050473E+13	2.488828E-5	7.890121	1.118613	0	0
3.048803	4.555829	6.152295	44.290455	0.243874	44.384362	0.243874	2.482515E+14	2.587154E-5	38652.406233	3.493266E+16	0	0	7.874198	1.117216	0	0
5.014045	4.493446	6.898603	44.151807	0.547609	44.255339	0.547609	2.30864E+14	2.587728E-5	38643.849517	3.485111E+16	0	0	7.89256	1.112569	0	0
10.515841	4.317349	6.505698	44.014351	0.824368	44.010019	0.824368	2.147957E+14	2.585623E-5	38675.316571	3.477575E+16	0	0	7.906611	1.110063	0	0
16.051141	4.100545	5.808974	43.876454	1.08072	43.6601	1.08072	1.99771E+14	2.58155E-5	38736.349038	3.470529E+16	0	0	7.896769	1.107779	0	0
21.589234	3.862032	4.946826	43.742428	1.309517	43.23216	1.309517	1.861517E+14	2.574476E-5	38842.80208	3.464142E+16	0	0	7.907728	1.102646	0	0
27.110507	3.585404	3.973536	43.61198	1.519981	42.739403	1.519981	1.737682E+14	2.569166E-5	38923.080546	3.458334E+16	0	0	7.923909	1.094455	0	0
27.97142	3.536103	3.812988	43.481678	1.718834	42.178333	1.718834	1.622038E+14	2.565579E-5	38977.519844	3.45291E+16	0	0	7.937918	1.086767	0	0
28.832682	3.485437	3.648562	43.352112	1.902641	41.560898	1.902641	1.514528E+14	2.560745E-5	39051.096169	3.447868E+16	0	0	7.95334	1.080092	0	0
29.665551	3.432601	3.49134	43.221402	2.074159	40.885453	2.074159	1.413154E+14	2.553692E-5	39158.95166	3.443114E+16	0	0	7.959357	1.071726	0	0
30.545422	3.377483	3.315362	43.095576	2.233109	40.183401	2.233109	1.321873E+14	2.551373E-5	39194.550796	3.438833E+16	0	0	7.981909	1.061243	0	0
31.396506	3.317283	3.148281	42.970159	2.379004	39.445932	2.379004	1.23666E+14	2.546006E-5	39277.181072	3.434837E+16	0	0	8.00563	1.050713	0	0
32.253971	3.252662	2.977784	42.839596	2.516636	38.646983	2.516636	1.153693E+14	2.534574E-5	39454.336905	3.430946E+16	0	0	8.021206	1.041324	0	0
33.097746	3.180938	2.812581	42.713101	2.643826	37.835821	2.643826	1.078547E+14	2.526131E-5	39586.207494	3.427421E+16	0	0	8.035425	1.032159	0	0
33.95132	3.104525	2.640869	42.586311	2.762948	36.994054	2.762948	1.008073E+14	2.516905E-5	39731.315263	3.424116E+16	0	0	8.047995	1.02194	0	0
34.8308	3.018651	2.461883	42.461858	2.874369	36.138379	2.874369	9.4332E+13	2.510205E-5	39837.366488	3.421079E+16	0	0	8.065274	1.011266	0	0
35.672868	2.916233	2.303003	42.33711	2.977756	35.261056	2.977756	8.825391E+13	2.501171E-5	39981.257757	3.418229E+16	0	0	8.082571	1.001518	0	0
36.525011	2.793153	2.150367	42.214078	3.074022	34.374612	3.074022	8.263885E+13	2.492974E-5	40112.714062	3.415595E+16	0	0	8.093098	0.991994	0	0
37.368485	2.650004	2.006218	42.091241	3.163228	33.474987	3.163228	7.738543E+13	2.482767E-5	40277.624059	3.413132E+16	0	0	8.101055	0.98219	0	0
38.195446	2.483513	1.874283	41.969516	3.245356	32.571098	3.245356	7.250582E+13	2.470685E-5	40474.599505	3.410843E+16	0	0	8.109066	0.972187	0	0
38.985272	2.291713	1.75932	41.849195	3.322224	31.663083	3.322224	6.79822E+13	2.459506E-5	40658.556299	3.408722E+16	0	0	8.117057	0.962558	0	0
39.783169	2.065998	1.660718	41.730262	3.394153	30.752953	3.394153	6.378582E+13	2.449124E-5	40830.917292	3.406754E+16	0	0	8.124638	0.953537	0	0
40.547782	1.815723	1.57977	41.612751	3.460864	29.844761	3.460864	5.9892E+13	2.438214E-5	41013.6143	3.404927E+16	0	0	8.130449	0.944492	0	0
41.297537	1.538745	1.508991	41.495975	3.523138	28.934627	3.523138	5.625623E+13	2.426732E-5	41207.668714	3.403222E+16	0	0	8.132816	0.935406	0	0
41.982976	1.255813	1.450999	41.380864	3.581406	28.028979	3.581406	5.288687E+13	2.41616E-5	41387.983425	3.401642E+16	0	0	8.137041	0.926265	0	0
42.60738	0.973879	1.397195	41.267045	3.636031	27.126463	3.636031	4.97524E+13	2.406222E-5	41558.916975	3.400172E+16	0	0	8.135952	0.917419	0	0
43.155495	0.704348	1.345514	41.153731	3.686888	26.224776	3.686888	4.681525E+13	2.394893E-5	41755.512191	3.398795E+16	0	0	8.132724	0.908725	0	0
43.621018	0.45591	1.291659	41.040516	3.735243	25.317944	3.735243	4.405277E+13	2.384471E-5	41938.014475	3.397499E+16	0	0	8.131958	0.899568	0	0
31.974648	3.275276	3.031428	40.925144	3.780304	24.396344	3.780304	4.140437E+13	2.369369E-5	42205.330008	3.396257E+16	0	0	8.131724	0.890211	0	0
44.396977	0	0	40.813775	3.822537	23.498502	3.822537	3.899817E+13	2.358149E-5	42406.147624	3.395128E+16	0	0	8.125778	0.881533	0	0
0	0	0	40.703402	3.862199	22.605851	3.862199	3.675079E+13	2.347175E-5	42604.397748	3.394074E+16	0	0	8.115822	0.872951	0	0
0	0	0	40.593078	3.899673	21.711734	3.899673	3.463322E+13	2.336006E-5	42808.110516	3.393081E+16	0	0	8.105891	0.864417	0	0
0	0	0	40.483913	3.934636	20.826083	3.934636	3.265749E+13	2.324392E-5	43021.998563	3.392155E+16	0	0	8.095931	0.855946	0	0
0	0	0	40.375157	3.969056	19.935142	3.969056	3.080077E+13	2.318278E-5	43135.467021	3.391284E+16	0	0	8.080892	0.847603	0	0
0	0	0	40.266973	4.001795	19.046343	4.001795	2.905814E+13	2.313632E-5	43222.076655	3.390467E+16	0	0	8.06389	0.839588	0	0
0	0	0	40.159883	4.031027	18.173986	4.031027	2.742989E+13	2.302943E-5	43422.69801	3.389703E+16	0	0	8.044588	0.831484	0	0
0	0	0	40.052221	4.059079	17.295548	4.059079	2.588458E+13	2.293048E-5	43610.068019	3.388978E+16	0	0	8.024518	0.823485	0	0
0	0	0	39.945148	4.085406	16.422486	4.085406	2.443377E+13	2.282669E-5	43808.357134	3.388298E+16	0	0	8.001034	0.815589	0	0
0	0	0	39.840459	4.110082	15.56745	4.110082	2.309369E+13	2.273801E-5	43979.220382	3.387669E+16	0	0	7.975873	0.807662	0	0
0	0	0	39.735607	4.132844	14.715579	4.132844	2.182496E+13	2.261353E-5	44221.32195	3.387074E+16	0	0	7.945976	0.799933	0	0
0	0	0	39.631997	4.154622	13.871597	4.154622	2.063953E+13	2.251261E-5	44419.541159	3.386519E+16	0	0	7.915241	0.792341	0	0
0	0	0	39.528647	4.175245	13.030365	4.175245	1.952108E+13	2.241147E-5	44619.999902	3.385994E+16	0	0	7.883196	0.784829	0	0
0	0	0	39.425821	4.195031	12.192174	4.195031	1.846828E+13	2.232833E-5	44786.143042	3.3855E+16	0	0	7.850054	0.777244	0	0
0	0	0	39.325461	4.213279	11.375586	4.213279	1.749538E+13	2.224105E-5	44961.906074	3.385044E+16	0	0	7.810865	0.769955	0	0
0	0	0	39.22448	4.230203	10.558467	4.230203	1.656807E+13	2.211821E-5	45211.608534	3.384609E+16	0	0	7.774294	0.762586	0	0
0	0	0	39.121997	4.246532	9.730107	4.246532	1.567709E+13	2.199267E-5	45469.686387	3.384191E+16	0	0	7.72878	0.755377	0	0
0	0	0	39.022176	4.261791	8.923272	4.261791	1.485524E+13	2.187917E-5	45705.56829	3.383806E+16	0	0	7.681539	0.748368	0	0
0	0	0	38.923547	4.276249	8.126313	4.276249	1.408546E+13	2.177433E-5	45925.637415	3.383445E+16	0	0	7.630566	0.741334	0	0
0	0	0	38.825474	4.289887	7.335255	4.289887	1.335949E+13	2.16658E-5	46155.701766	3.383104E+16	0	0	7.580604	0.734388	0	0
0	0	0	38.728071	4.302782	6.550726	4.302782	1.267546E+13	2.155685E-5	46388.958935	3.382783E+16	0	0	7.526424	0.727467	0	0
0	0	0	38.631272	4.31501	5.772013	4.31501	1.203031E+13	2.144956E-5	46620.998367	3.382481E+16	0	0	7.470766	0.720673	0	0
0	0	0	38.534914	4.326571	4.998256	4.326571	1.142067E+13	2.133876E-5	46863.069086	3.382195E+16	0	0	7.407427	0.713839	0	0
0	0	0	38.439193	4.337487	4.23099	4.337487	1.08456E+13	2.122494E-5	47114.392528	3.381925E+16	0	0	7.345671	0.707236	0	0
0	0	0	38.344141	4.347795	3.470429	4.347795	1.030318E+13	2.110837E-5	47374.561363	3.381671E+16	0	0	7.281724	0.700674	0	0
0	0	0	38.249433	4.357707	2.712781	4.357707	9.789655E+12	2.100284E-5	47612.606899	3.38143E+16	0	0	7.214039	0.694303	0	0
0	0	0	38.153712	4.366959	1.950687	4.366959	9.296609E+12	2.086411E-5	47929.200445	3.381199E+16	0	0	7.139331	0.687924	0	0
0	0	0	38.060539	4.375835	1.207569	4.375835	8.84052E+12	2.075816E-5	48173.830766	3.380985E+16	0	0	7.067606	0.681481	0	0
0	0	0	37.966632	4.384162	0.461516	4.384162	8.403444E+12	2.062692E-5	48480.344912	3.38078E+16	0	0	6.986734	0.675254	0	0
0	0	0	37.874031	4.392061	-0.27361	4.392061	7.993592E+12	2.050313E-5	48773.049879	3.380588E+16	0	0	6.902708	0.669003	0	0
0	0	0	37.780988	4.399858	-1.01308	4.399858	7.601898E+12	2.040391E-5	49010.214527	3.380404E+16	0	0	6.820158	0.662672	0	0
0	0	0	37.689874	4.407003	-1.734844	4.407003	7.236907E+12	2.028776E-5	49290.805286	3.380233E+16	0	0	6.730111	0.656437	0	0
0	0	0	37.597338	4.413884	-2.466337	4.413884	6.884138E+12	2.016195E-5	49598.378895	3.380067E+16	0	0	6.640088	0.650322	0	0
0	0	0	37.506289	4.420353	-3.185061	4.420353	6.553809E+12	2.003696E-5	49907.769424	3.379912E+16	0	0	6.54922	0.644055	0	0
0	0	0	37.414897	4.426568	-3.905559	4.426568	6.23816E+12	1.991142E-5	50222.431046	3.379764E+16	0	0	6.45657	0.637484	0	0
0	0	0	37.324419	4.432495	-4.618305	4.432495	5.940636E+12	1.97928E-5	50523.41411	3.379625E+16	0	0	6.352606	0.631409	0	0
0	0	0	37.232014	4.438282	-5.345241	4.438282	5.651405E+12	1.967086E-5	50836.62673	3.379489E+16	0	0	6.249101	0.625357	0	0
0	0	0	37.139609	4.443729	-6.070383	4.443729	5.376244E+12	1.953505E-5	51190.045539	3.37936E+16	0	0	6.136889	0.619569	0	0
0	0	0	37.049719	4.449009	-6.776963	4.449009	5.121426E+12	1.943665E-5	51449.195791	3.379241E+16	0	0	6.028203	0.613709	0	0
0	0	0	36.958752	4.453654	-7.486417	4.453654	4.875837E+12	1.925802E-5	51926.418399	3.379126E+16	0	0	5.912565	0.607865	0	0
0	0	0	36.868078	4.458388	-8.195816	4.458388	4.642754E+12	1.913123E-5	52270.554605	3.379016E+16	0	0	5.794827	0.602093	0	0
0	0	0	36.777274	4.462879	-8.904901	4.462879	4.420495E+12	1.899553E-5	52643.952463	3.378912E+16	0	0	5.676479	0.596441	0	0
0	0	0	36.685963	4.467173	-9.616792	4.467173	4.207719E+12	1.885311E-5	53041.650704	3.378812E+16	0	0	5.552818	0.5907	0	0
0	0	0	36.595796	4.471212	-10.318754	4.471212	4.007653E+12	1.870809E-5	53452.820942	3.378718E+16	0	0	5.425955	0.585128	0	0
0	0	0	36.505841	4.47525	-11.020176	4.47525	3.817533E+12	1.85986E-5	53767.481277	3.378629E+16	0	0	5.293652	0.579643	0	0
0	0	0	36.41525	4.478882	-11.722929	4.478882	3.635176E+12	1.843397E-5	54247.672963	3.378544E+16	0	0	5.157605	0.574294	0	0
0	0	0	36.323906	4.482543	-12.432452	4.482543	3.460121E+12	1.830038E-5	54643.667924	3.378462E+16	0	0	5.029148	0.568873	0	0
0	0	0	36.232612	4.486135	-13.141783	4.486135	3.293579E+12	1.818609E-5	54987.087466	3.378383E+16	0	0	4.89108	0.563636	0	0
0	0	0	36.141399	4.489234	-13.845969	4.489234	3.135188E+12	1.799498E-5	55571.063352	3.378309E+16	0	0	4.751769	0.558607	0	0
0	0	0	36.050742	4.492328	-14.546804	4.492328	2.985307E+12	1.78376E-5	56061.34317	3.378239E+16	0	0	4.613162	0.553513	0	0
0	0	0	35.959709	4.495381	-15.25073	4.495381	2.842011E+12	1.769779E-5	56504.23475	3.378172E+16	0	0	4.470723	0.548571	0	0
0	0	0	35.86817	4.498174	-15.956184	4.498174	2.70485E+12	1.752008E-5	57077.371075	3.378107E+16	0	0	4.329816	0.543709	0	0
0	0	0	35.777284	4.500942	-16.65725	4.500942	2.575216E+12	1.737159E-5	57565.260705	3.378047E+16	0	0	4.189118	0.538791	0	0
0	0	0	35.685581	4.503766	-17.365695	4.503766	2.450711E+12	1.726125E-5	57933.231557	3.377988E+16	0	0	4.042651	0.533985	0	0
0	0	0	35.593666	4.506132	-18.071	4.506132	2.331956E+12	1.705577E-5	58631.201428	3.377932E+16	0	0	3.894381	0.529259	0	0
0	0	0	35.501163	4.508493	-18.78119	4.508493	2.218248E+12	1.687068E-5	59274.447997	3.377879E+16	0	0	3.753649	0.524437	0	0
0	0	0	35.407958	4.511012	-19.499094	4.511012	2.109283E+12	1.675414E-5	59686.740059	3.377828E+16	0	0	3.606593	0.519711	0	0
0	0	0	35.313331	4.513196	-20.224038	4.513196	2.004129E+12	1.655637E-5	60399.715363	3.377779E+16	0	0	3.449104	0.515192	0	0
0	0	0	35.220943	4.515188	-20.930648	4.515188	1.90652E+12	1.634691E-5	61173.63891	3.377733E+16	0	0	3.299486	0.510442	0	0
0	0	0	35.127247	4.517078	-21.646153	4.517078	1.812383E+12	1.61195E-5	62036.677863	3.377689E+16	0	0	3.144631	0.505891	0	0
0	0	0	35.034123	4.519109	-22.359724	4.519109	1.723426E+12	1.596845E-5	62623.496147	3.377647E+16	0	0	2.993356	0.501492	0	0
0	0	0	34.94002	4.52111	-23.080684	4.52111	1.637966E+12	1.582774E-5	63180.22695	3.377607E+16	0	0	2.840114	0.496854	0	0
0	0	0	34.845605	4.522816	-23.800659	4.522816	1.556482E+12	1.561169E-5	64054.578527	3.377569E+16	0	0	2.680106	0.492567	0	0
0	0	0	34.751191	4.524523	-24.521083	4.524523	1.479051E+12	1.542068E-5	64847.969526	3.377532E+16	0	0	2.520547	0.488264	0	0
0	0	0	34.656418	4.526026	-25.241938	4.526026	1.405198E+12	1.517866E-5	65881.957383	3.377498E+16	0	0	2.367033	0.483897	0	0
0	0	0	34.559749	4.527676	-25.979178	4.527676	1.333666E+12	1.499924E-5	66670.023769	3.377464E+16	0	0	2.211877	0.479729	0	0
0	0	0	34.463424	4.52926	-26.713445	4.52926	1.266009E+12	1.482457E-5	67455.601874	3.377433E+16	0	0	2.060989	0.475274	0	0
0	0	0	34.365923	4.530698	-27.454848	4.530698	1.20102E+12	1.460932E-5	68449.43843	3.377402E+16	0	0	1.912295	0.471083	0	0
0	0	0	34.270283	4.532014	-28.181174	4.532014	1.140513E+12	1.438417E-5	69520.875054	3.377374E+16	0	0	1.760746	0.466979	0	0
0	0	0	34.173109	4.533283	-28.918595	4.533283	1.082157E+12	1.415112E-5	70665.766879	3.377346E+16	0	0	1.617518	0.462884	0	0
0	0	0	34.07577	4.534725	-29.659987	4.534725	1.026695E+12	1.401203E-5	71367.2514	3.37732E+16	0	0	1.473187	0.458637	0	0
0	0	0	33.97791	4.535984	-30.403064	4.535984	9.737997E+11	1.381709E-5	72374.13698	3.377296E+16	0	0	1.331384	0.454613	0	0
0	0	0	33.87884	4.53701	-31.152109	4.53701	9.230263E+11	1.353395E-5	73888.278755	3.377272E+16	0	0	1.196929	0.450629	0	0
0	0	0	33.779803	4.538219	-31.903837	4.538219	8.749153E+11	1.335353E-5	74886.541904	3.377249E+16	0	0	1.071011	0.446605	0	0
0	0	0	33.679933	4.539361	-32.661117	4.539361	8.289383E+11	1.316101E-5	75982.012991	3.377228E+16	0	0	0.948143	0.442518	0	0
0	0	0	33.579426	4.540407	-33.42202	4.540407	7.851068E+11	1.294192E-5	77268.314042	3.377207E+16	0	0	0.824504	0.438742	0	0
0	0	0	33.47758	4.541468	-34.193388	4.541468	7.430546E+11	1.274333E-5	78472.422047	3.377187E+16	0	0	0.719916	0.434917	0	0
0	0	0	33.373185	4.542584	-34.984811	4.542584	7.022866E+11	1.257878E-5	79498.981486	3.377168E+16	0	0	0.616624	0.431069	0	0
0	0	0	33.270947	4.543346	-35.755172	4.543346	6.645291E+11	1.227436E-5	81470.673543	3.37715E+16	0	0	0.522589	0.427293	0	0
0	0	0	33.166748	4.544098	-36.540149	4.544098	6.281356E+11	1.197115E-5	83534.160319	3.377133E+16	0	0	0.437044	0.423501	0	0
0	0	0	33.062778	4.545027	-37.326388	4.545027	5.938085E+11	1.17797E-5	84891.772633	3.377117E+16	0	0	0.357335	0.419876	0	0
0	0	0	32.957599	4.545981	-38.122272	4.545981	5.609904E+11	1.161661E-5	86083.645148	3.377102E+16	0	0	0.298015	0.416132	0	0
0	0	0	32.85064	4.546824	-38.929904	4.546824	5.294762E+11	1.140566E-5	87675.791174	3.377087E+16	0	0	0.242193	0.41246	0	0
0	0	0	32.742456	4.547535	-39.744793	4.547535	4.994014E+11	1.113627E-5	89796.650225	3.377073E+16	0	0	0.193462	0.408803	0	0
0	0	0	32.633781	4.548377	-40.565657	4.548377	4.7091E+11	1.095775E-5	91259.5831	3.37706E+16	0	0	0.151045	0.405259	0	0
0	0	0	32.524405	4.548992	-41.388296	4.548992	4.438754E+11	1.066716E-5	93745.647823	3.377047E+16	0	0	0.116771	0.40173	0	0
0	0	0	32.411434	4.549753	-42.24024	4.549753	4.175808E+11	1.045995E-5	95602.730697	3.377035E+16	0	0	0.088635	0.398129	0	0
0	0	0	32.299281	4.550302	-43.082833	4.550302	3.930173E+11	1.015432E-5	98480.243792	3.377023E+16	0	0	0.069693	0.394569	0	0
0	0	0	32.185298	4.551093	-43.943265	4.551093	3.695329E+11	1.000156E-5	99984.386989	3.377012E+16	0	0	0.053637	0.391279	0	0
0	0	0	32.0712	4.551561	-44.799328	4.551561	3.474303E+11	9.675039E-6	103358.759888	3.377002E+16	0	0	0.034374	0.387806	0	0
0	0	0	31.954653	4.552216	-45.676954	4.552216	3.262173E+11	9.467508E-6	105624.419369	3.376992E+16	0	0	0.027052	0.384238	0	0
0	0	0	31.840866	4.552881	-46.534437	4.552881	3.067569E+11	9.300885E-6	107516.649259	3.376983E+16	0	0	0.022267	0.380813	0	0
0	0	0	31.7252	4.553277	-47.401436	4.553277	2.881645E+11	8.976397E-6	111403.274325	3.376974E+16	0	0	0.016044	0.377508	0	0
0	0	0	31.602576	4.553794	-48.322449	4.553794	2.696827E+11	8.712392E-6	114779.046998	3.376965E+16	0	0	0.015841	0.374163	0	0
0	0	0	31.479233	4.55454	-49.25303	4.55454	2.522881E+11	8.610696E-6	116134.6281	3.376957E+16	0	0	0.008426	0.370825	0	0
0	0	0	31.354224	4.554926	-50.189832	4.554926	2.35803E+11	8.290528E-6	120619.57377	3.376949E+16	0	0	0.004689	0.36764	0	0
0	0	0	31.227663	4.555211	-51.136481	4.555211	2.202103E+11	7.918207E-6	126291.209538	3.376942E+16	0	0	0.001937	0.364303	0	0
0	0	0	31.101266	4.555743	-52.086547	4.555743	2.056667E+11	7.723648E-6	129472.503694	3.376935E+16	0	0	0.00618	0.361038	0	0
0	0	0	30.970605	4.556225	-53.067591	4.556225	1.916415E+11	7.498187E-6	133365.581016	3.376929E+16	0	0	0.009427	0.357892	0	0
0	0	0	30.839111	4.556657	-54.054067	4.556657	1.784923E+11	7.255428E-6	137827.84412	3.376923E+16	0	0	0.004136	0.354739	0	0
0	0	0	30.703028	4.556926	-55.071814	4.556926	1.658333E+11	6.908695E-6	144745.137256	3.376917E+16	0	0	-0.001968	0.351689	0	0
0	0	0	30.564281	4.557509	-56.115452	4.557509	1.538504E+11	6.774837E-6	147605.019371	3.376911E+16	0	0	-0.005261	0.348591	0	0
0	0	0	30.424816	4.557819	-57.159413	4.557819	1.42678E+11	6.47902E-6	154344.32509	3.376906E+16	0	0	0.003139	0.345542	0	0
0	0	0	30.282313	4.558306	-58.229553	4.558306	1.320998E+11	6.308274E-6	158521.976037	3.376901E+16	0	0	0.004276	0.34254	0	0
0	0	0	30.138437	4.558388	-59.302152	4.558388	1.222151E+11	5.887255E-6	169858.440957	3.376896E+16	0	0	0.008048	0.339442	0	0
0	0	0	29.990641	4.55889	-60.412304	4.55889	1.128307E+11	5.743485E-6	174110.3102	3.376892E+16	0	0	0.000584	0.33644	0	0
0	0	0	29.839726	4.559261	-61.543254	4.559261	1.039914E+11	5.524692E-6	181005.561118	3.376888E+16	0	0	0.001349	0.33343	0	0
0	0	0	29.685037	4.559641	-62.702663	4.559641	9.56492E+10	5.320176E-6	187963.694928	3.376884E+16	0	0	-0.000938	0.330588	0	0
0	0	0	29.527996	4.559809	-63.875395	4.559809	8.786444E+10	4.990528E-6	200379.602988	3.37688E+16	0	0	0.004075	0.327674	0	0
0	0	0	29.367067	4.560118	-65.080087	4.560118	8.054381E+10	4.760484E-6	210062.658601	3.376877E+16	0	0	0.00255	0.324976	0	0
0	0	0	29.204014	4.56063	-66.304975	4.56063	7.374841E+10	4.672726E-6	214007.839278	3.376873E+16	0	0	-0.001354	0.32211	0	0
0	0	0	29.036323	4.560834	-67.558107	4.560834	6.73572E+10	4.393259E-6	227621.443619	3.37687E+16	0	0	-0.00374	0.31934	0	0
0	0	0	28.86574	4.561062	-68.833409	4.561062	6.142378E+10	4.143251E-6	241356.393018	3.376868E+16	0	0	-0.001377	0.316513	0	0
0	0	0	28.689343	4.561427	-70.155097	4.561427	5.583723E+10	3.984217E-6	250990.325055	3.376865E+16	0	0	-0.001388	0.313847	0	0
0	0	0	28.509809	4.561595	-71.495998	4.561595	5.067279E+10	3.714307E-6	269229.195392	3.376863E+16	0	0	-0.005459	0.311061	0	0
0	0	0	28.328102	4.561712	-72.852043	4.561712	4.593204E+10	3.43212E-6	291365.069267	3.37686E+16	0	0	-0.003866	0.308418	0	0
0	0	0	28.141659	4.561945	-74.246046	4.561945	4.152833E+10	3.228006E-6	309788.731108	3.376858E+16	0	0	0.002702	0.305799	0	0
0	0	0	27.954006	4.562214	-75.649982	4.562214	3.75223E+10	3.058442E-6	326963.871902	3.376856E+16	0	0	-0.001851	0.303149	0	0
0	0	0	27.755884	4.562508	-77.132645	4.562508	3.371136E+10	2.902233E-6	344562.219316	3.376855E+16	0	0	0.004844	0.300514	0	0
0	0	0	27.555719	4.562585	-78.625617	4.562585	3.025406E+10	2.643139E-6	378338.022816	3.376853E+16	0	0	0.000233	0.29792	0	0
0	0	0	27.351601	4.562894	-80.15357	4.562894	2.709337E+10	2.518008E-6	397139.279732	3.376852E+16	0	0	0.000661	0.295429	0	0
0	0	0	27.142077	4.563051	-81.718362	4.563051	2.419206E+10	2.323772E-6	430334.801109	3.37685E+16	0	0	-0.003202	0.292866	0	0
0	0	0	26.927015	4.563325	-83.327319	4.563325	2.153688E+10	2.196958E-6	455174.821884	3.376849E+16	0	0	-0.001062	0.290279	0	0
0	0	0	26.706628	4.563422	-84.971784	4.563422	1.911801E+10	1.993778E-6	501560.357607	3.376848E+16	0	0	0.006797	0.287733	0	0
0	0	0	26.483105	4.563741	-86.645201	4.563741	1.694205E+10	1.907864E-6	524146.280732	3.376847E+16	0	0	-0.001962	0.285194	0	0
0	0	0	26.254486	4.563777	-88.349676	4.563777	1.497245E+10	1.701244E-6	587805.005454	3.376846E+16	0	0	0.000244	0.282815	0	0
0	0	0	26.02028	4.563903	-90.098121	4.563903	1.319193E+10	1.548463E-6	645801.731284	3.376845E+16	0	0	0.00159	0.280388	0	0
0	0	0	25.778984	4.564137	-91.902221	4.564137	1.157869E+10	1.447001E-6	691084.328697	3.376844E+16	0	0	0.002507	0.278017	0	0
