Vload_(V)	ILoad_(A)	RsLoad_(ohm)	SunsVoc_Voltage_(V)	SunsVoc_Current_(A)	Model_Voltage_(V)	Model_Current_(A)	Carrier_Density_(cm-3)	Lifetime_(s)	Inverse_Lifetime_(s-1)	(Carrier_Density+Doping)/qWni^2_(cm^2/C)	Carrier_Density_at_Vmp_(cm-3)	Lifetime_at_Vmp_(s)	Efficiency_(%)	Intensity_(suns)	Dark_IV_Voltage_(V)	Dark_IV_Current_(A)
2.456258	4.779041	0	44.610841	-0.191281	44.662542	-0.191281	2.934159E+14	2.660125E-5	37592.072922	3.514447E+16	4.003209E+13	2.368279E-5	10.518022	1.118595	0	0
2.476802	4.779775	-0.586469	44.469563	0.155048	44.420433	0.155048	2.725987E+14	2.656498E-5	37643.42091	3.504684E+16	0	0	10.514208	1.114813	0	0
4.753512	4.776855	3.297539	44.330261	0.48023	44.156037	0.48023	2.534736E+14	2.656974E-5	37636.698149	3.495715E+16	0	0	10.539134	1.111246	0	0
10.374235	4.754048	4.457934	44.191188	0.783437	43.871041	0.783437	2.356788E+14	2.657914E-5	37623.394064	3.487369E+16	0	0	10.544401	1.110328	0	0
15.944969	4.737642	3.640797	44.051527	1.061383	43.568929	1.061383	2.19031E+14	2.654844E-5	37666.922202	3.479562E+16	0	0	10.531004	1.108046	0	0
21.522076	4.699378	2.91567	43.912323	1.318416	43.252349	1.318416	2.035776E+14	2.650808E-5	37724.270796	3.472314E+16	0	0	10.546583	1.10254	0	0
27.06378	4.538109	2.486768	43.777382	1.548511	42.933336	1.548511	1.896137E+14	2.644838E-5	37809.446441	3.465765E+16	0	0	10.565181	1.095693	0	0
27.92974	4.504284	2.379714	43.646346	1.760045	42.610964	1.760045	1.769502E+14	2.64114E-5	37862.382679	3.459826E+16	0	0	10.57824	1.089685	0	0
28.785626	4.46801	2.27061	43.517302	1.952949	42.285354	1.952949	1.652885E+14	2.635477E-5	37943.754154	3.454357E+16	0	0	10.588779	1.083931	0	0
29.645834	4.426364	2.160535	43.386968	2.134038	41.949088	2.134038	1.542744E+14	2.628274E-5	38047.748806	3.449192E+16	0	0	10.592757	1.076063	0	0
30.50339	4.377079	2.05416	43.254364	2.306668	41.599325	2.306668	1.438072E+14	2.621016E-5	38153.115211	3.444283E+16	0	0	10.618633	1.066703	0	0
31.3634	4.324352	1.942309	43.119636	2.469017	41.238443	2.469017	1.338867E+14	2.611704E-5	38289.154021	3.43963E+16	0	0	10.641196	1.057782	0	0
32.216661	4.263341	1.833363	42.988812	2.618949	40.880425	2.618949	1.248983E+14	2.605475E-5	38380.691526	3.435415E+16	0	0	10.653324	1.049116	0	0
33.072515	4.193356	1.723031	42.864734	2.754261	40.534746	2.754261	1.169229E+14	2.602104E-5	38430.423962	3.431674E+16	0	0	10.670986	1.039971	0	0
33.927827	4.112723	1.615168	42.737324	2.876551	40.183053	2.876551	1.092554E+14	2.587755E-5	38643.508422	3.428078E+16	0	0	10.687497	1.029765	0	0
34.778251	4.017045	1.510934	42.614503	2.989855	39.838557	2.989855	1.023339E+14	2.577312E-5	38800.09059	3.424832E+16	0	0	10.703002	1.019503	0	0
35.630028	3.904701	1.410223	42.490589	3.097344	39.488308	3.097344	9.578941E+13	2.566686E-5	38960.733959	3.421763E+16	0	0	10.720523	1.009856	0	0
36.472169	3.767694	1.317258	42.365515	3.199255	39.132529	3.199255	8.96029E+13	2.555799E-5	39126.701367	3.418861E+16	0	0	10.728952	1.000177	0	0
37.318179	3.603244	1.229375	42.242449	3.292925	38.781202	3.292925	8.390151E+13	2.544016E-5	39307.912738	3.416188E+16	0	0	10.740772	0.990034	0	0
38.146112	3.398154	1.155256	42.118927	3.380852	38.427578	3.380852	7.853985E+13	2.531203E-5	39506.896367	3.413673E+16	0	0	10.753762	0.979876	0	0
38.907275	3.176965	1.091254	41.994669	3.463609	38.071072	3.463609	7.348852E+13	2.517411E-5	39723.347622	3.411304E+16	0	0	10.765698	0.969806	0	0
39.701114	2.896368	1.032642	41.871081	3.541312	37.71517	3.541312	6.878373E+13	2.504165E-5	39933.461528	3.409098E+16	0	0	10.771555	0.960254	0	0
40.549633	2.5403	0.976808	41.745141	3.614217	37.353607	3.614217	6.429643E+13	2.487307E-5	40204.123509	3.406993E+16	0	0	10.777515	0.950455	0	0
41.309139	2.161246	0.943966	41.623122	3.681623	37.001579	3.681623	6.022594E+13	2.472945E-5	40437.610485	3.405084E+16	0	0	10.780619	0.940473	0	0
41.971703	1.793217	0.924381	41.502817	3.743517	36.655101	3.743517	5.64631E+13	2.457012E-5	40699.833344	3.403319E+16	0	0	10.785451	0.930825	0	0
42.634295	1.386364	0.912762	41.384587	3.801055	36.3142	3.801055	5.299263E+13	2.441662E-5	40955.700203	3.401692E+16	0	0	10.7833	0.921449	0	0
43.21984	0.994385	0.906563	41.268709	3.854776	35.979396	3.854776	4.979688E+13	2.427774E-5	41189.995601	3.400193E+16	0	0	10.78502	0.911897	0	0
43.720936	0.631751	0.90443	41.151345	3.904908	35.642149	3.904908	4.675528E+13	2.410215E-5	41490.07396	3.398766E+16	0	0	10.779666	0.902473	0	0
34.016055	4.101243	1.607354	41.036267	3.951831	35.31094	3.951831	4.395232E+13	2.394245E-5	41766.819315	3.397452E+16	0	0	10.774153	0.892802	0	0
44.534523	0	0	40.920422	3.996291	34.978053	3.996291	4.12994E+13	2.377517E-5	42060.686151	3.396208E+16	0	0	10.773236	0.883514	0	0
0	0	0	40.803842	4.038145	34.644032	4.038145	3.879043E+13	2.359228E-5	42386.743225	3.395031E+16	0	0	10.765566	0.874784	0	0
0	0	0	40.687588	4.077675	34.311192	4.077675	3.643953E+13	2.341158E-5	42713.896628	3.393928E+16	0	0	10.754979	0.866245	0	0
0	0	0	40.571923	4.115012	33.980222	4.115012	3.424126E+13	2.323622E-5	43036.260049	3.392898E+16	0	0	10.743864	0.857771	0	0
0	0	0	40.456567	4.151277	33.648898	4.151277	3.21804E+13	2.309924E-5	43291.464969	3.391931E+16	0	0	10.726539	0.849448	0	0
0	0	0	40.340722	4.186176	33.315941	4.186176	3.023509E+13	2.298041E-5	43515.317871	3.391019E+16	0	0	10.7064	0.841078	0	0
0	0	0	40.227833	4.21688	32.994584	4.21688	2.845217E+13	2.280644E-5	43847.270329	3.390183E+16	0	0	10.684919	0.832819	0	0
0	0	0	40.115598	4.246426	32.67454	4.246426	2.678342E+13	2.265977E-5	44131.083037	3.3894E+16	0	0	10.668408	0.824512	0	0
0	0	0	40.004343	4.273484	32.359123	4.273484	2.522553E+13	2.248394E-5	44476.192384	3.388669E+16	0	0	10.640082	0.816293	0	0
0	0	0	39.892712	4.298978	32.043667	4.298978	2.375314E+13	2.229592E-5	44851.259049	3.387979E+16	0	0	10.610639	0.808169	0	0
0	0	0	39.780117	4.323051	31.726645	4.323051	2.235482E+13	2.209115E-5	45266.987278	3.387323E+16	0	0	10.579508	0.800269	0	0
0	0	0	39.669336	4.34595	31.414476	4.34595	2.105915E+13	2.19111E-5	45638.971592	3.386715E+16	0	0	10.546529	0.79237	0	0
0	0	0	39.558015	4.36756	31.101816	4.36756	1.983261E+13	2.171862E-5	46043.442461	3.38614E+16	0	0	10.510222	0.78447	0	0
0	0	0	39.44761	4.388601	30.790929	4.388601	1.868653E+13	2.156637E-5	46368.491525	3.385603E+16	0	0	10.469852	0.776953	0	0
0	0	0	39.336077	4.408335	30.478371	4.408335	1.759583E+13	2.138864E-5	46753.7932	3.385091E+16	0	0	10.429514	0.769596	0	0
0	0	0	39.224348	4.426481	30.16713	4.426481	1.656689E+13	2.117438E-5	47226.879389	3.384608E+16	0	0	10.388108	0.762119	0	0
0	0	0	39.112521	4.443438	29.856787	4.443438	1.559716E+13	2.094219E-5	47750.488998	3.384154E+16	0	0	10.344126	0.754897	0	0
0	0	0	38.99844	4.459956	29.540556	4.459956	1.466624E+13	2.071164E-5	48282.025056	3.383717E+16	0	0	10.294406	0.747819	0	0
0	0	0	38.884587	4.475277	29.226231	4.475277	1.379247E+13	2.046009E-5	48875.642616	3.383307E+16	0	0	10.240916	0.740933	0	0
0	0	0	38.771813	4.490013	28.914714	4.490013	1.297821E+13	2.02338E-5	49422.256388	3.382925E+16	0	0	10.187908	0.73391	0	0
0	0	0	38.659267	4.503924	28.604512	4.503924	1.221346E+13	2.000431E-5	49989.229767	3.382567E+16	0	0	10.127218	0.727104	0	0
0	0	0	38.546117	4.516739	28.29426	4.516739	1.148994E+13	1.97387E-5	50661.902658	3.382227E+16	0	0	10.07125	0.720153	0	0
0	0	0	38.433817	4.529286	27.985789	4.529286	1.081418E+13	1.95111E-5	51252.881455	3.381911E+16	0	0	10.010435	0.713411	0	0
0	0	0	38.321255	4.540849	27.678041	4.540849	1.017667E+13	1.925226E-5	51941.965892	3.381612E+16	0	0	9.94524	0.706636	0	0
0	0	0	38.220029	4.55185	27.399123	4.55185	9.635482E+12	1.911107E-5	52325.687244	3.381358E+16	0	0	9.877741	0.699989	0	0
0	0	0	38.129209	4.56244	27.146517	4.56244	9.174433E+12	1.908631E-5	52393.585337	3.381142E+16	0	0	9.802684	0.693549	0	0
0	0	0	38.017218	4.572397	26.841739	4.572397	8.636138E+12	1.883208E-5	53100.88766	3.380889E+16	0	0	9.728786	0.68687	0	0
0	0	0	37.903317	4.581372	26.533863	4.581372	8.121007E+12	1.851283E-5	54016.584367	3.380647E+16	0	0	9.64922	0.680518	0	0
0	0	0	37.789219	4.590321	26.224885	4.590321	7.635762E+12	1.823212E-5	54848.263957	3.38042E+16	0	0	9.571075	0.674158	0	0
0	0	0	37.672296	4.598798	25.909331	4.598798	7.168534E+12	1.792148E-5	55798.968948	3.380201E+16	0	0	9.485904	0.667815	0	0
0	0	0	37.554736	4.606769	25.592832	4.606769	6.727554E+12	1.759728E-5	56826.958921	3.379994E+16	0	0	9.401876	0.661614	0	0
0	0	0	37.434513	4.614381	25.269949	4.614381	6.304604E+12	1.72533E-5	57959.914437	3.379796E+16	0	0	9.314545	0.655446	0	0
0	0	0	37.312999	4.621592	24.944278	4.621592	5.904107E+12	1.689729E-5	59181.101132	3.379608E+16	0	0	9.222535	0.64935	0	0
0	0	0	37.189967	4.62862	24.61469	4.62862	5.524496E+12	1.654958E-5	60424.499215	3.37943E+16	0	0	9.130942	0.64311	0	0
0	0	0	37.069156	4.635045	24.291812	4.635045	5.175482E+12	1.619577E-5	61744.53174	3.379266E+16	0	0	9.040299	0.636494	0	0
0	0	0	36.941632	4.641388	23.951664	4.641388	4.83095E+12	1.581422E-5	63234.243966	3.379104E+16	0	0	8.939316	0.63047	0	0
0	0	0	36.810824	4.647322	23.603829	4.647322	4.501347E+12	1.539911E-5	64938.804495	3.37895E+16	0	0	8.83823	0.624421	0	0
0	0	0	36.676978	4.652809	23.249073	4.652809	4.187341E+12	1.494762E-5	66900.269741	3.378803E+16	0	0	8.732943	0.618516	0	0
0	0	0	36.541907	4.658335	22.890614	4.658335	3.89265E+12	1.453178E-5	68814.690553	3.378664E+16	0	0	8.627064	0.612851	0	0
0	0	0	36.404957	4.663315	22.52852	4.663315	3.615017E+12	1.407607E-5	71042.577813	3.378534E+16	0	0	8.515852	0.607201	0	0
0	0	0	36.267877	4.668374	22.165407	4.668374	3.356939E+12	1.366864E-5	73160.14257	3.378413E+16	0	0	8.397901	0.601655	0	0
0	0	0	36.128542	4.673146	21.796986	4.673146	3.113483E+12	1.324871E-5	75479.030513	3.378299E+16	0	0	8.285523	0.596077	0	0
0	0	0	35.98942	4.6775	21.42997	4.6775	2.888007E+12	1.281616E-5	78026.485787	3.378193E+16	0	0	8.167667	0.590515	0	0
0	0	0	35.85087	4.6819	21.063863	4.6819	2.679682E+12	1.243034E-5	80448.350532	3.378096E+16	0	0	8.049316	0.585033	0	0
0	0	0	35.713185	4.686151	20.700036	4.686151	2.487542E+12	1.206708E-5	82870.118836	3.378005E+16	0	0	7.920724	0.579751	0	0
0	0	0	35.574406	4.690173	20.333779	4.690173	2.30781E+12	1.170185E-5	85456.581995	3.377921E+16	0	0	7.797065	0.574365	0	0
0	0	0	35.437506	4.694002	19.972574	4.694002	2.143234E+12	1.135676E-5	88053.318383	3.377844E+16	0	0	7.669743	0.569042	0	0
0	0	0	35.301471	4.697509	19.61431	4.697509	1.991324E+12	1.100557E-5	90863.100006	3.377773E+16	0	0	7.533269	0.56376	0	0
0	0	0	35.16506	4.700812	19.255457	4.700812	1.849802E+12	1.065518E-5	93851.042524	3.377706E+16	0	0	7.397482	0.558525	0	0
0	0	0	35.032521	4.704285	18.905606	4.704285	1.721934E+12	1.037936E-5	96345.077893	3.377646E+16	0	0	7.258434	0.553482	0	0
0	0	0	34.90088	4.707099	18.560028	4.707099	1.603682E+12	1.004472E-5	99554.822208	3.377591E+16	0	0	7.115691	0.548462	0	0
0	0	0	34.771592	4.710235	18.219081	4.710235	1.495449E+12	9.793675E-6	102106.71847	3.37754E+16	0	0	6.974534	0.543435	0	0
0	0	0	34.642205	4.713274	17.877959	4.713274	1.394445E+12	9.554236E-6	104665.612198	3.377493E+16	0	0	6.83413	0.538328	0	0
0	0	0	34.514599	4.715798	17.542981	4.715798	1.301514E+12	9.273429E-6	107834.970987	3.377449E+16	0	0	6.683274	0.533397	0	0
0	0	0	34.386699	4.718439	17.206616	4.718439	1.214582E+12	9.031055E-6	110729.035571	3.377408E+16	0	0	6.536474	0.52841	0	0
0	0	0	34.258161	4.720814	16.869378	4.720814	1.133065E+12	8.768563E-6	114043.768554	3.37737E+16	0	0	6.384076	0.523725	0	0
0	0	0	34.131111	4.723135	16.535939	4.723135	1.057868E+12	8.526554E-6	117280.676767	3.377335E+16	0	0	6.234561	0.519041	0	0
0	0	0	34.005138	4.725403	16.205264	4.725403	9.882371E+11	8.302115E-6	120451.235871	3.377302E+16	0	0	6.076133	0.514309	0	0
0	0	0	33.877728	4.72758	15.871068	4.72758	9.224715E+11	8.077524E-6	123800.317403	3.377271E+16	0	0	5.927009	0.509721	0	0
0	0	0	33.752212	4.729545	15.542356	4.729545	8.619643E+11	7.847353E-6	127431.498132	3.377243E+16	0	0	5.771452	0.505037	0	0
0	0	0	33.626485	4.731717	15.212135	4.731717	8.05333E+11	7.668171E-6	130409.188171	3.377217E+16	0	0	5.610587	0.500648	0	0
0	0	0	33.501084	4.733506	14.884074	4.733506	7.525549E+11	7.447186E-6	134278.909579	3.377192E+16	0	0	5.453697	0.496108	0	0
0	0	0	33.375372	4.735279	14.555133	4.735279	7.031173E+11	7.239866E-6	138124.09728	3.377169E+16	0	0	5.290171	0.491791	0	0
0	0	0	33.247521	4.737211	14.219927	4.737211	6.561678E+11	7.06846E-6	141473.538611	3.377147E+16	0	0	5.126495	0.487386	0	0
0	0	0	33.120944	4.738687	13.889672	4.738687	6.127748E+11	6.842487E-6	146145.695586	3.377126E+16	0	0	4.962526	0.482901	0	0
0	0	0	32.994171	4.740279	13.558314	4.740279	5.721906E+11	6.651801E-6	150335.231742	3.377107E+16	0	0	4.796125	0.478497	0	0
0	0	0	32.868247	4.741782	13.229375	4.741782	5.345395E+11	6.464611E-6	154688.35777	3.37709E+16	0	0	4.626939	0.474243	0	0
0	0	0	32.740216	4.743262	12.894998	4.743262	4.987972E+11	6.281992E-6	159185.166173	3.377073E+16	0	0	4.458348	0.47007	0	0
0	0	0	32.612937	4.744578	12.563118	4.744578	4.656338E+11	6.088283E-6	164249.911378	3.377057E+16	0	0	4.299772	0.465817	0	0
0	0	0	32.484792	4.745979	12.228546	4.745979	4.344719E+11	5.921519E-6	168875.598682	3.377043E+16	0	0	4.140767	0.461731	0	0
0	0	0	32.354866	4.74748	11.888856	4.74748	4.050053E+11	5.782485E-6	172936.038316	3.377029E+16	0	0	3.973167	0.457646	0	0
0	0	0	32.224532	4.748468	11.550226	4.748468	3.774537E+11	5.563168E-6	179753.688838	3.377016E+16	0	0	3.80549	0.453576	0	0
0	0	0	32.094737	4.749799	11.211382	4.749799	3.518788E+11	5.422389E-6	184420.547325	3.377004E+16	0	0	3.637306	0.449578	0	0
0	0	0	31.963651	4.751004	10.869676	4.751004	3.27808E+11	5.268457E-6	189808.909011	3.376993E+16	0	0	3.46961	0.445541	0	0
0	0	0	31.831406	4.752213	10.524867	4.752213	3.051923E+11	5.12614E-6	195078.539472	3.376982E+16	0	0	3.302863	0.441439	0	0
0	0	0	31.70117	4.753269	10.185806	4.753269	2.844456E+11	4.973359E-6	201071.359405	3.376972E+16	0	0	3.12836	0.437529	0	0
0	0	0	31.571097	4.754123	9.847995	4.754123	2.651326E+11	4.794573E-6	208569.151365	3.376963E+16	0	0	2.954947	0.433539	0	0
0	0	0	31.432514	4.754961	9.488333	4.754961	2.459966E+11	4.603369E-6	217232.20194	3.376954E+16	0	0	2.78852	0.429693	0	0
0	0	0	31.293539	4.756011	9.1266	4.756011	2.281933E+11	4.464925E-6	223967.927587	3.376946E+16	0	0	2.621978	0.425958	0	0
0	0	0	31.15543	4.756871	8.767891	4.756871	2.117775E+11	4.30438E-6	232321.522476	3.376938E+16	0	0	2.462548	0.42208	0	0
0	0	0	31.016684	4.75763	8.407946	4.75763	1.964749E+11	4.134866E-6	241845.777373	3.376931E+16	0	0	2.301027	0.418378	0	0
0	0	0	30.876712	4.758568	8.043921	4.758568	1.821574E+11	4.00931E-6	249419.468245	3.376924E+16	0	0	2.141771	0.414795	0	0
0	0	0	30.735385	4.75938	7.676944	4.75938	1.687594E+11	3.86771E-6	258550.893065	3.376918E+16	0	0	1.990458	0.41102	0	0
0	0	0	30.59035	4.76034	7.299637	4.76034	1.560338E+11	3.759581E-6	265987.091139	3.376912E+16	0	0	1.839785	0.407326	0	0
0	0	0	30.443681	4.761019	6.919428	4.761019	1.441405E+11	3.60387E-6	277479.524838	3.376906E+16	0	0	1.68637	0.403767	0	0
0	0	0	30.299511	4.761576	6.546185	4.761576	1.333337E+11	3.44002E-6	290695.988288	3.376901E+16	0	0	1.548561	0.400176	0	0
0	0	0	30.154051	4.762345	6.168505	4.762345	1.232511E+11	3.326331E-6	300631.541673	3.376897E+16	0	0	1.409399	0.396569	0	0
0	0	0	30.00655	4.762912	5.786528	4.762912	1.138052E+11	3.179475E-6	314517.341107	3.376892E+16	0	0	1.274045	0.393018	0	0
0	0	0	29.857398	4.763358	5.40088	4.763358	1.049896E+11	3.016529E-6	331506.812199	3.376888E+16	0	0	1.147092	0.389491	0	0
0	0	0	29.705519	4.764402	5.005074	4.764402	9.671411E+10	2.976945E-6	335914.824199	3.376884E+16	0	0	1.029794	0.38598	0	0
0	0	0	29.550634	4.764858	4.604513	4.764858	8.894629E+10	2.825899E-6	353869.678418	3.376881E+16	0	0	0.914022	0.382533	0	0
0	0	0	29.392825	4.765267	4.196641	4.765267	8.167316E+10	2.671771E-6	374283.637658	3.376877E+16	0	0	0.808346	0.37915	0	0
0	0	0	29.234019	4.76595	3.784694	4.76595	7.495436E+10	2.580068E-6	387586.730619	3.376874E+16	0	0	0.713816	0.375806	0	0
0	0	0	29.071702	4.766454	3.364616	4.766454	6.865781E+10	2.457909E-6	406849.813722	3.376871E+16	0	0	0.608763	0.372582	0	0
0	0	0	28.907	4.766905	2.938639	4.766905	6.280916E+10	2.332038E-6	428809.539909	3.376868E+16	0	0	0.526608	0.369135	0	0
0	0	0	28.739292	4.767435	2.504447	4.767435	5.736546E+10	2.227209E-6	448992.530704	3.376866E+16	0	0	0.449069	0.365728	0	0
0	0	0	28.567746	4.767849	2.060972	4.767849	5.228495E+10	2.104971E-6	475065.996271	3.376863E+16	0	0	0.382817	0.362552	0	0
0	0	0	28.393227	4.768453	1.608732	4.768453	4.757787E+10	2.024776E-6	493881.807523	3.376861E+16	0	0	0.325584	0.359416	0	0
0	0	0	28.215555	4.768776	1.149907	4.768776	4.322083E+10	1.897325E-6	527057.787901	3.376859E+16	0	0	0.270569	0.356264	0	0
0	0	0	28.034453	4.769291	0.681127	4.769291	3.919005E+10	1.811098E-6	552151.191949	3.376857E+16	0	0	0.224607	0.353224	0	0
0	0	0	27.851864	4.769556	0.209905	4.769556	3.550664E+10	1.686753E-6	592855.007758	3.376855E+16	0	0	0.183679	0.350135	0	0
0	0	0	27.663167	4.770112	-0.278772	4.770112	3.206336E+10	1.618114E-6	618003.41646	3.376854E+16	0	0	0.153742	0.347111	0	0
0	0	0	27.473113	4.770526	-0.77016	4.770526	2.893279E+10	1.531024E-6	653157.535941	3.376852E+16	0	0	0.128041	0.344199	0	0
0	0	0	27.282913	4.770886	-1.26166	4.770886	2.610579E+10	1.442495E-6	693243.308356	3.376851E+16	0	0	0.103436	0.341174	0	0
0	0	0	27.088743	4.771072	-1.762362	4.771072	2.350453E+10	1.329019E-6	752434.924151	3.37685E+16	0	0	0.084386	0.33827	0	0
0	0	0	26.890522	4.771432	-2.274579	4.771432	2.111618E+10	1.250532E-6	799659.714053	3.376849E+16	0	0	0.07034	0.335269	0	0
0	0	0	26.688234	4.771724	-2.796884	4.771724	1.892884E+10	1.165661E-6	857882.415848	3.376848E+16	0	0	0.056808	0.332285	0	0
0	0	0	26.484606	4.772254	-3.324163	4.772254	1.695581E+10	1.125675E-6	888356.256996	3.376847E+16	0	0	0.043384	0.32962	0	0
0	0	0	26.275588	4.772302	-3.862341	4.772302	1.514423E+10	1.012549E-6	987606.060095	3.376846E+16	0	0	0.035994	0.326627	0	0
0	0	0	26.063189	4.772657	-4.411189	4.772657	1.35015E+10	9.529185E-7	1049407.635221	3.376845E+16	0	0	0.027271	0.323978	0	0
0	0	0	25.846036	4.773033	-4.972456	4.773033	1.200608E+10	9.004356E-7	1110573.59221	3.376844E+16	0	0	0.027503	0.321121	0	0
0	0	0	25.622987	4.773272	-5.548055	4.773272	1.064231E+10	8.3115E-7	1203152.261196	3.376844E+16	0	0	0.017383	0.318288	0	0
0	0	0	25.397422	4.773521	-6.130233	4.773521	9.420625E+9	7.689356E-7	1300499.08776	3.376843E+16	0	0	0.012708	0.315559	0	0
0	0	0	25.168018	4.773796	-6.722505	4.773796	8.3219E+9	7.149413E-7	1398716.278516	3.376843E+16	0	0	0.012002	0.312894	0	0
0	0	0	24.934237	4.773998	-7.325586	4.773998	7.333943E+9	6.552242E-7	1526195.045478	3.376842E+16	0	0	0.007613	0.310141	0	0
0	0	0	24.693399	4.774305	-7.947585	4.774305	6.438666E+9	6.125638E-7	1632483.007357	3.376842E+16	0	0	0.006029	0.307492	0	0
0	0	0	24.449752	4.774326	-8.574887	4.774326	5.644099E+9	5.393955E-7	1853927.100541	3.376841E+16	0	0	0.003589	0.304851	0	0
0	0	0	24.202478	4.774724	-9.214158	4.774724	4.937897E+9	5.153326E-7	1940494.273732	3.376841E+16	0	0	0.009898	0.302106	0	0
0	0	0	23.948033	4.77474	-9.869253	4.77474	4.303342E+9	4.507775E-7	2218389.322848	3.376841E+16	0	0	0.008714	0.299504	0	0
0	0	0	23.689211	4.774973	-10.537176	4.774973	3.741468E+9	4.143781E-7	2413254.878911	3.376841E+16	0	0	0.002403	0.297078	0	0
0	0	0	23.428576	4.77528	-11.210345	4.77528	3.249769E+9	3.893242E-7	2568553.179578	3.37684E+16	0	0	0.001995	0.294389	0	0
0	0	0	23.162403	4.775624	-11.898094	4.775624	2.814251E+9	3.711249E-7	2694510.435713	3.37684E+16	0	0	-0.001017	0.291828	0	0
0	0	0	22.89048	4.77563	-12.598188	4.77563	2.429536E+9	3.208945E-7	3116288.807292	3.37684E+16	0	0	0.002028	0.289354	0	0
0	0	0	22.616369	4.775789	-13.305073	4.775789	2.094932E+9	2.902216E-7	3445642.500461	3.37684E+16	0	0	0.000725	0.286896	0	0
0	0	0	22.337193	4.775979	-14.025265	4.775979	1.801473E+9	2.651125E-7	3771983.874506	3.37684E+16	0	0	0.002948	0.284415	0	0
0	0	0	22.05382	4.776223	-14.756709	4.776223	1.54561E+9	2.471261E-7	4046516.910493	3.37684E+16	0	0	0.002078	0.281989	0	0
0	0	0	21.765285	4.776292	-15.500126	4.776292	1.322393E+9	2.167343E-7	4613944.865328	3.376839E+16	0	0	0.004347	0.279643	0	0
0	0	0	21.474627	4.77634	-16.248855	4.77634	1.130114E+9	1.884911E-7	5305289.33923	3.376839E+16	0	0	0.003476	0.277097	0	0
