Vload_(V)	ILoad_(A)	RsLoad_(ohm)	SunsVoc_Voltage_(V)	SunsVoc_Current_(A)	Model_Voltage_(V)	Model_Current_(A)	Carrier_Density_(cm-3)	Lifetime_(s)	Inverse_Lifetime_(s-1)	(Carrier_Density+Doping)/qWni^2_(cm^2/C)	Carrier_Density_at_Vmp_(cm-3)	Lifetime_at_Vmp_(s)	Efficiency_(%)	Intensity_(suns)	Dark_IV_Voltage_(V)	Dark_IV_Current_(A)
2.467348	4.883975	0	44.414874	-0.078094	44.441406	-0.078094	2.649295E+14	2.405861E-5	41565.040693	3.501087E+16	3.580097E+13	2.061347E-5	10.661113	1.116984	0	0
2.498255	4.884162	0.164818	44.274314	0.266764	44.172224	0.266764	2.461638E+14	2.402412E-5	41624.734836	3.492286E+16	0	0	10.645295	1.113496	0	0
4.883312	4.877793	3.783147	44.132154	0.595257	43.878494	0.595257	2.284971E+14	2.400801E-5	41652.676206	3.484001E+16	0	0	10.678833	1.107798	0	0
10.443425	4.864033	3.944494	43.992444	0.890062	43.575161	0.890062	2.123374E+14	2.395692E-5	41741.524432	3.476422E+16	0	0	10.696509	1.105004	0	0
15.999329	4.84841	3.338867	43.854138	1.159878	43.261343	1.159878	1.974378E+14	2.388979E-5	41858.822904	3.469435E+16	0	0	10.682992	1.10273	0	0
21.566444	4.813943	2.713397	43.720913	1.403025	42.946736	1.403025	1.840516E+14	2.382564E-5	41971.52989	3.463157E+16	0	0	10.693999	1.098172	0	0
27.039718	4.653188	2.333446	43.585172	1.63045	42.617878	1.63045	1.71325E+14	2.372846E-5	42143.442472	3.457188E+16	0	0	10.70427	1.090686	0	0
27.871118	4.617405	2.246403	43.451865	1.845602	42.281752	1.845602	1.596657E+14	2.367955E-5	42230.488353	3.45172E+16	0	0	10.728679	1.082816	0	0
28.704458	4.57801	2.154269	43.320796	2.041418	41.944779	2.041418	1.489609E+14	2.361382E-5	42348.052452	3.4467E+16	0	0	10.743079	1.076199	0	0
29.547039	4.5316	2.061995	43.18927	2.22164	41.602489	2.22164	1.389272E+14	2.351405E-5	42527.728196	3.441994E+16	0	0	10.740201	1.068058	0	0
30.370043	4.48204	1.968451	43.058086	2.39038	41.25497	2.39038	1.295814E+14	2.341637E-5	42705.136383	3.437611E+16	0	0	10.763053	1.05789	0	0
31.2078	4.423385	1.873354	42.932277	2.547986	40.912326	2.547986	1.212001E+14	2.33795E-5	42772.493119	3.43368E+16	0	0	10.782538	1.04781	0	0
32.042362	4.365384	1.766987	42.80013	2.69589	40.55407	2.69589	1.12971E+14	2.326516E-5	42982.709471	3.429821E+16	0	0	10.796785	1.0384	0	0
32.877551	4.281665	1.682084	42.666839	2.832888	40.191263	2.832888	1.052287E+14	2.311817E-5	43256.003086	3.42619E+16	0	0	10.812045	1.029277	0	0
33.688876	4.199018	1.588513	42.537632	2.959343	39.834717	2.959343	9.822386E+13	2.299706E-5	43483.809198	3.422905E+16	0	0	10.822983	1.019197	0	0
34.515513	4.101772	1.493154	42.408703	3.078513	39.475666	3.078513	9.169316E+13	2.288503E-5	43696.666372	3.419842E+16	0	0	10.841129	1.00918	0	0
35.352583	3.987921	1.399119	42.280313	3.189128	39.116777	3.189128	8.561635E+13	2.276299E-5	43930.94237	3.416992E+16	0	0	10.853444	0.999618	0	0
36.189433	3.848529	1.311193	42.152902	3.29172	38.759448	3.29172	7.997986E+13	2.263451E-5	44180.309615	3.414348E+16	0	0	10.858955	0.990456	0	0
37.019071	3.681949	1.231183	42.026309	3.387296	38.403301	3.387296	7.474337E+13	2.250334E-5	44437.831465	3.411893E+16	0	0	10.871448	0.980559	0	0
37.842223	3.476414	1.160712	41.900189	3.475454	38.048956	3.475454	6.986422E+13	2.235088E-5	44740.968993	3.409604E+16	0	0	10.882487	0.970367	0	0
38.663182	3.230821	1.096103	41.774935	3.55681	37.697423	3.55681	6.533106E+13	2.218186E-5	45081.869133	3.407478E+16	0	0	10.889149	0.960621	0	0
39.46926	2.938655	1.04458	41.651952	3.632893	37.350701	3.632893	6.116401E+13	2.202994E-5	45392.773804	3.405524E+16	0	0	10.892229	0.951602	0	0
40.254746	2.60755	0.995024	41.527727	3.704922	37.000565	3.704922	5.722257E+13	2.186941E-5	45725.958545	3.403675E+16	0	0	10.892245	0.942568	0	0
41.033761	2.225438	0.96037	41.405168	3.771704	36.655159	3.771704	5.358116E+13	2.170723E-5	46067.589077	3.401968E+16	0	0	10.891137	0.933277	0	0
41.770917	1.813375	0.944069	41.284831	3.8334	36.316169	3.8334	5.022976E+13	2.154455E-5	46415.455648	3.400396E+16	0	0	10.885986	0.924234	0	0
42.44025	1.405131	0.931789	41.165931	3.890822	35.981487	3.890822	4.712301E+13	2.13806E-5	46771.361162	3.398939E+16	0	0	10.883385	0.915207	0	0
43.018318	1.022885	0.92164	41.046786	3.945029	35.646493	3.945029	4.420144E+13	2.121284E-5	47141.257568	3.397569E+16	0	0	10.881253	0.906085	0	0
43.520012	0.667046	0.906628	40.927135	3.996724	35.309956	3.996724	4.14487E+13	2.105074E-5	47504.263002	3.396278E+16	0	0	10.881879	0.896707	0	0
33.649935	4.201173	1.59527	40.805622	4.044718	34.970813	4.044718	3.882758E+13	2.084723E-5	47968.003004	3.395048E+16	0	0	10.874035	0.887512	0	0
44.384413	0	0	40.685676	4.090051	34.635571	4.090051	3.640208E+13	2.066096E-5	48400.457747	3.393911E+16	0	0	10.872886	0.878557	0	0
0	0	0	40.567577	4.132482	34.305582	4.132482	3.41613E+13	2.048391E-5	48818.795343	3.39286E+16	0	0	10.86323	0.869913	0	0
0	0	0	40.449951	4.172549	33.977276	4.172549	3.206602E+13	2.031041E-5	49235.828493	3.391877E+16	0	0	10.851611	0.861413	0	0
0	0	0	40.331133	4.210339	33.646977	4.210339	3.007942E+13	2.012091E-5	49699.543679	3.390946E+16	0	0	10.83689	0.852977	0	0
0	0	0	40.213867	4.247031	33.319285	4.247031	2.823899E+13	1.997795E-5	50055.186558	3.390083E+16	0	0	10.816157	0.844509	0	0
0	0	0	40.096976	4.281789	32.993036	4.281789	2.651614E+13	1.98419E-5	50398.402538	3.389275E+16	0	0	10.794846	0.83612	0	0
0	0	0	39.981556	4.312615	32.674379	4.312615	2.491776E+13	1.965179E-5	50885.953196	3.388525E+16	0	0	10.769819	0.828003	0	0
0	0	0	39.866642	4.342218	32.356838	4.342218	2.342181E+13	1.948137E-5	51331.101931	3.387823E+16	0	0	10.739881	0.820038	0	0
0	0	0	39.752511	4.369754	32.042698	4.369754	2.20247E+13	1.930029E-5	51812.700985	3.387168E+16	0	0	10.71863	0.811881	0	0
0	0	0	39.63941	4.395075	31.733035	4.395075	2.072218E+13	1.909935E-5	52357.801259	3.386557E+16	0	0	10.689682	0.804179	0	0
0	0	0	39.527142	4.419148	31.425866	4.419148	1.950525E+13	1.890878E-5	52885.472327	3.385987E+16	0	0	10.668157	0.796485	0	0
0	0	0	39.414139	4.442225	31.117175	4.442225	1.835232E+13	1.87205E-5	53417.38322	3.385446E+16	0	0	10.637417	0.788775	0	0
0	0	0	39.30081	4.464022	30.80855	4.464022	1.726434E+13	1.852477E-5	53981.775141	3.384936E+16	0	0	10.605936	0.781009	0	0
0	0	0	39.18864	4.4849	30.502946	4.4849	1.625087E+13	1.834956E-5	54497.226715	3.38446E+16	0	0	10.564185	0.773826	0	0
0	0	0	39.075718	4.50464	30.196368	4.50464	1.529058E+13	1.816372E-5	55054.801933	3.38401E+16	0	0	10.525403	0.766603	0	0
0	0	0	38.960151	4.522919	29.885056	4.522919	1.436639E+13	1.792985E-5	55772.924624	3.383576E+16	0	0	10.477296	0.759547	0	0
0	0	0	38.847556	4.540398	29.581182	4.540398	1.351962E+13	1.773146E-5	56396.942522	3.383179E+16	0	0	10.434049	0.752667	0	0
0	0	0	38.735615	4.55675	29.280009	4.55675	1.272717E+13	1.752624E-5	57057.307731	3.382808E+16	0	0	10.382804	0.745827	0	0
0	0	0	38.622579	4.572182	28.977033	4.572182	1.197401E+13	1.730521E-5	57786.070517	3.382454E+16	0	0	10.335192	0.739027	0	0
0	0	0	38.510654	4.587064	28.676838	4.587064	1.127211E+13	1.710736E-5	58454.368882	3.382125E+16	0	0	10.282838	0.732243	0	0
0	0	0	38.397586	4.600939	28.375068	4.600939	1.060475E+13	1.688351E-5	59229.380013	3.381812E+16	0	0	10.236382	0.725475	0	0
0	0	0	38.285776	4.614071	28.077016	4.614071	9.983615E+12	1.666793E-5	59995.459018	3.381521E+16	0	0	10.181166	0.718746	0	0
0	0	0	38.174422	4.626601	27.780522	4.626601	9.401138E+12	1.645959E-5	60754.84387	3.381248E+16	0	0	10.12921	0.711874	0	0
0	0	0	38.060652	4.638279	27.479274	4.638279	8.841056E+12	1.62147E-5	61672.418032	3.380985E+16	0	0	10.066496	0.70521	0	0
0	0	0	37.949592	4.649234	27.185452	4.649234	8.326484E+12	1.598365E-5	62563.937474	3.380744E+16	0	0	10.0063	0.698697	0	0
0	0	0	37.838256	4.659803	26.891121	4.659803	7.840654E+12	1.576066E-5	63449.099719	3.380516E+16	0	0	9.927321	0.692424	0	0
0	0	0	37.727115	4.669723	26.598093	4.669723	7.383923E+12	1.552979E-5	64392.354279	3.380302E+16	0	0	9.860028	0.686127	0	0
0	0	0	37.615598	4.679024	26.304974	4.679024	6.952362E+12	1.528573E-5	65420.474382	3.380099E+16	0	0	9.785814	0.679797	0	0
0	0	0	37.504245	4.688398	26.01144	4.688398	6.546578E+12	1.508346E-5	66297.793264	3.379909E+16	0	0	9.707956	0.673596	0	0
0	0	0	37.393088	4.696797	25.72017	4.696797	6.16511E+12	1.484188E-5	67376.896509	3.37973E+16	0	0	9.631772	0.667378	0	0
0	0	0	37.280738	4.705056	25.425773	4.705056	5.802115E+12	1.461284E-5	68432.958435	3.37956E+16	0	0	9.559397	0.661225	0	0
0	0	0	37.169222	4.71292	25.133853	4.71292	5.462933E+12	1.439108E-5	69487.486586	3.379401E+16	0	0	9.481343	0.655047	0	0
0	0	0	37.05514	4.720258	24.836494	4.720258	5.136445E+12	1.413749E-5	70733.919755	3.379248E+16	0	0	9.402227	0.648814	0	0
0	0	0	36.942366	4.727037	24.543283	4.727037	4.832867E+12	1.38765E-5	72064.267874	3.379105E+16	0	0	9.323529	0.642676	0	0
0	0	0	36.82902	4.733685	24.248555	4.733685	4.545816E+12	1.362968E-5	73369.308453	3.378971E+16	0	0	9.238686	0.636467	0	0
0	0	0	36.715772	4.740298	23.953699	4.740298	4.27603E+12	1.341094E-5	74565.963209	3.378844E+16	0	0	9.133549	0.630552	0	0
0	0	0	36.601087	4.746467	23.656076	4.746467	4.019124E+12	1.31707E-5	75926.12114	3.378724E+16	0	0	9.037395	0.624574	0	0
0	0	0	36.486777	4.752223	23.360083	4.752223	3.778412E+12	1.292282E-5	77382.477225	3.378611E+16	0	0	8.927956	0.618884	0	0
0	0	0	36.371585	4.75767	23.062388	4.75767	3.550417E+12	1.266669E-5	78947.210152	3.378504E+16	0	0	8.826005	0.613137	0	0
0	0	0	36.255658	4.762747	22.763552	4.762747	3.334849E+12	1.239588E-5	80671.988114	3.378403E+16	0	0	8.718026	0.607598	0	0
0	0	0	36.139192	4.767737	22.463281	4.767737	3.131451E+12	1.213953E-5	82375.481262	3.378307E+16	0	0	8.626155	0.601899	0	0
0	0	0	36.021044	4.772543	22.159056	4.772543	2.937781E+12	1.187989E-5	84175.829045	3.378217E+16	0	0	8.524282	0.596392	0	0
0	0	0	35.90381	4.777131	21.857372	4.777131	2.757448E+12	1.16295E-5	85988.199927	3.378132E+16	0	0	8.409771	0.590885	0	0
0	0	0	35.785466	4.781431	21.553482	4.781431	2.586627E+12	1.136657E-5	87977.300475	3.378052E+16	0	0	8.29528	0.585426	0	0
0	0	0	35.666598	4.785736	21.247982	4.785736	2.425699E+12	1.112648E-5	89875.702616	3.377976E+16	0	0	8.182648	0.580022	0	0
0	0	0	35.546147	4.789764	20.939109	4.789764	2.272834E+12	1.087103E-5	91987.635996	3.377905E+16	0	0	8.058104	0.574771	0	0
0	0	0	35.425385	4.793428	20.630299	4.793428	2.129241E+12	1.05963E-5	94372.569602	3.377837E+16	0	0	7.917994	0.569511	0	0
0	0	0	35.302777	4.79726	20.316141	4.79726	1.99273E+12	1.035519E-5	96569.920486	3.377773E+16	0	0	7.786942	0.564347	0	0
0	0	0	35.176608	4.800583	19.994521	4.800583	1.861382E+12	1.005812E-5	99422.205144	3.377712E+16	0	0	7.667071	0.559151	0	0
0	0	0	35.053429	4.80396	19.679849	4.80396	1.741502E+12	9.807499E-6	101962.798978	3.377656E+16	0	0	7.53717	0.554155	0	0
0	0	0	34.928763	4.807077	19.362096	4.807077	1.628032E+12	9.540072E-6	104821.013535	3.377602E+16	0	0	7.402435	0.54915	0	0
0	0	0	34.803166	4.810273	19.041545	4.810273	1.521187E+12	9.300599E-6	107519.95851	3.377552E+16	0	0	7.261381	0.544298	0	0
0	0	0	34.675674	4.813215	18.716911	4.813215	1.419899E+12	9.042244E-6	110592.017008	3.377505E+16	0	0	7.125519	0.539285	0	0
0	0	0	34.547627	4.816059	18.391005	4.816059	1.324956E+12	8.790888E-6	113754.156989	3.37746E+16	0	0	6.977718	0.534337	0	0
0	0	0	34.417816	4.818653	18.06136	4.818653	1.235182E+12	8.52075E-6	117360.560224	3.377418E+16	0	0	6.816309	0.5295	0	0
0	0	0	34.284117	4.82109	17.722434	4.82109	1.149073E+12	8.233975E-6	121448.019174	3.377378E+16	0	0	6.668418	0.524592	0	0
0	0	0	34.151594	4.823728	17.385523	4.823728	1.069645E+12	8.000374E-6	124994.155473	3.37734E+16	0	0	6.530768	0.519819	0	0
0	0	0	34.017552	4.825894	17.046296	4.825894	9.948902E+11	7.718794E-6	129553.921129	3.377305E+16	0	0	6.385608	0.515046	0	0
0	0	0	33.882334	4.828304	16.703116	4.828304	9.247708E+11	7.485282E-6	133595.49955	3.377273E+16	0	0	6.211245	0.510249	0	0
0	0	0	33.74527	4.83035	16.356473	4.83035	8.587357E+11	7.216018E-6	138580.592317	3.377242E+16	0	0	6.030361	0.505636	0	0
0	0	0	33.606981	4.832504	16.006232	4.832504	7.968875E+11	6.976564E-6	143337.02974	3.377213E+16	0	0	5.863826	0.501079	0	0
0	0	0	33.466976	4.834501	15.65214	4.834501	7.38808E+11	6.729149E-6	148607.192034	3.377185E+16	0	0	5.707771	0.496497	0	0
0	0	0	33.324767	4.836438	15.292635	4.836438	6.841452E+11	6.4852E-6	154197.245369	3.37716E+16	0	0	5.545187	0.492004	0	0
0	0	0	33.179372	4.838229	14.925619	4.838229	6.324366E+11	6.22975E-6	160520.07237	3.377135E+16	0	0	5.365781	0.487558	0	0
0	0	0	33.034076	4.839906	14.559122	4.839906	5.846669E+11	5.978365E-6	167269.807661	3.377113E+16	0	0	5.179333	0.483145	0	0
0	0	0	32.88793	4.841615	14.190246	4.841615	5.40257E+11	5.747183E-6	173998.27302	3.377092E+16	0	0	4.995117	0.478835	0	0
0	0	0	32.738729	4.842967	13.815039	4.842967	4.983965E+11	5.476634E-6	182593.902838	3.377073E+16	0	0	4.823378	0.474485	0	0
0	0	0	32.588728	4.844676	13.436312	4.844676	4.595804E+11	5.269679E-6	189764.863769	3.377054E+16	0	0	4.656655	0.470366	0	0
0	0	0	32.436457	4.846206	13.052511	4.846206	4.232673E+11	5.049904E-6	198023.575297	3.377037E+16	0	0	4.44987	0.466112	0	0
0	0	0	32.281686	4.847448	12.663529	4.847448	3.892971E+11	4.802654E-6	208218.207508	3.377021E+16	0	0	4.253088	0.461818	0	0
0	0	0	32.126017	4.848984	12.271002	4.848984	3.578792E+11	4.608751E-6	216978.522497	3.377007E+16	0	0	4.062865	0.457676	0	0
0	0	0	31.968927	4.850248	11.875924	4.850248	3.287442E+11	4.392279E-6	227672.228224	3.376993E+16	0	0	3.870964	0.45351	0	0
0	0	0	31.809893	4.851577	11.475628	4.851577	3.016638E+11	4.195809E-6	238333.062602	3.37698E+16	0	0	3.659431	0.449399	0	0
0	0	0	31.655808	4.852917	11.087447	4.852917	2.775556E+11	4.026984E-6	248324.819739	3.376969E+16	0	0	3.452901	0.445329	0	0
0	0	0	31.492887	4.854126	10.677753	4.854126	2.541571E+11	3.836914E-6	260626.138463	3.376958E+16	0	0	3.255413	0.44125	0	0
0	0	0	31.327401	4.855335	10.26157	4.855335	2.324086E+11	3.65673E-6	273468.370874	3.376948E+16	0	0	3.043899	0.437172	0	0
0	0	0	31.1618	4.856214	9.846431	4.856214	2.12508E+11	3.449494E-6	289897.567203	3.376938E+16	0	0	2.821075	0.433221	0	0
0	0	0	30.994468	4.857294	9.426012	4.857294	1.941295E+11	3.278638E-6	305004.671088	3.37693E+16	0	0	2.606748	0.42943	0	0
0	0	0	30.825045	4.858237	9.000897	4.858237	1.771402E+11	3.101406E-6	322434.403097	3.376922E+16	0	0	2.381044	0.425623	0	0
0	0	0	30.654299	4.859186	8.572372	4.859186	1.615221E+11	2.936231E-6	340572.625256	3.376915E+16	0	0	2.176522	0.421752	0	0
0	0	0	30.480335	4.860038	8.136201	4.860038	1.47025E+11	2.767775E-6	361301.016017	3.376908E+16	0	0	1.968677	0.417977	0	0
0	0	0	30.305359	4.861117	7.696364	4.861117	1.337558E+11	2.636819E-6	379244.78066	3.376902E+16	0	0	1.786201	0.414417	0	0
0	0	0	30.130284	4.861849	7.257799	4.861849	1.216777E+11	2.478096E-6	403535.536853	3.376896E+16	0	0	1.639261	0.410658	0	0
0	0	0	29.952563	4.862613	6.812425	4.862613	1.10532E+11	2.331673E-6	428876.516224	3.376891E+16	0	0	1.493319	0.407074	0	0
0	0	0	29.773046	4.863497	6.361927	4.863497	1.003097E+11	2.207337E-6	453034.488547	3.376886E+16	0	0	1.356473	0.403387	0	0
0	0	0	29.590098	4.864288	5.903252	4.864288	9.086418E+10	2.079876E-6	480797.796212	3.376881E+16	0	0	1.226833	0.399771	0	0
0	0	0	29.406153	4.86495	5.442651	4.86495	8.226374E+10	1.948484E-6	513219.624126	3.376877E+16	0	0	1.104813	0.396267	0	0
0	0	0	29.221066	4.865633	4.979025	4.865633	7.443132E+10	1.828622E-6	546859.98442	3.376874E+16	0	0	0.98662	0.39278	0	0
0	0	0	29.033185	4.8663	4.508457	4.8663	6.724302E+10	1.714339E-6	583315.16409	3.37687E+16	0	0	0.874822	0.389348	0	0
0	0	0	28.844258	4.867167	4.034192	4.867167	6.071461E+10	1.627744E-6	614347.255427	3.376867E+16	0	0	0.765644	0.385844	0	0
0	0	0	28.652947	4.867703	3.555597	4.867703	5.474939E+10	1.516232E-6	659529.532953	3.376865E+16	0	0	0.666691	0.382324	0	0
0	0	0	28.459349	4.868067	3.072155	4.868067	4.930925E+10	1.396767E-6	715938.815465	3.376862E+16	0	0	0.581457	0.3791	0	0
0	0	0	28.264673	4.868912	2.583447	4.868912	4.438379E+10	1.327793E-6	753129.199119	3.37686E+16	0	0	0.500945	0.375755	0	0
0	0	0	28.06882	4.869405	2.09359	4.869405	3.992494E+10	1.234836E-6	809824.228696	3.376858E+16	0	0	0.423954	0.372523	0	0
0	0	0	27.874177	4.869953	1.60639	4.869953	3.59375E+10	1.154892E-6	865881.6241	3.376856E+16	0	0	0.356611	0.369219	0	0
0	0	0	27.67215	4.870478	1.100871	4.870478	3.221945E+10	1.075732E-6	929599.542099	3.376854E+16	0	0	0.299155	0.36593	0	0
0	0	0	27.470744	4.870944	0.597161	4.870944	2.889576E+10	9.992651E-7	1000735.426871	3.376852E+16	0	0	0.251104	0.362674	0	0
0	0	0	27.267721	4.871551	0.088585	4.871551	2.589228E+10	9.391304E-7	1064814.878229	3.376851E+16	0	0	0.210938	0.359553	0	0
0	0	0	27.063179	4.871849	-0.422107	4.871849	2.318195E+10	8.614968E-7	1160770.377633	3.37685E+16	0	0	0.172538	0.356464	0	0
0	0	0	26.856774	4.872239	-0.937994	4.872239	2.073444E+10	7.96157E-7	1256033.68555	3.376849E+16	0	0	0.143476	0.353503	0	0
0	0	0	26.646662	4.872808	-1.464191	4.872808	1.85082E+10	7.468718E-7	1338917.859304	3.376848E+16	0	0	0.115046	0.350423	0	0
0	0	0	26.437301	4.873193	-1.987516	4.873193	1.65277E+10	6.907458E-7	1447710.651461	3.376847E+16	0	0	0.092666	0.347461	0	0
0	0	0	26.225669	4.873561	-2.516446	4.873561	1.474102E+10	6.378692E-7	1567719.5855	3.376846E+16	0	0	0.07397	0.344429	0	0
0	0	0	26.012094	4.874005	-3.050714	4.874005	1.313368E+10	5.936366E-7	1684532.11638	3.376845E+16	0	0	0.061982	0.341475	0	0
0	0	0	25.79682	4.874503	-3.589595	4.874503	1.169086E+10	5.562225E-7	1797841.651945	3.376844E+16	0	0	0.048653	0.338626	0	0
0	0	0	25.57934	4.874834	-4.133009	4.874834	1.039415E+10	5.12405E-7	1951581.369354	3.376844E+16	0	0	0.037385	0.335649	0	0
0	0	0	25.361289	4.875213	-4.67819	4.875213	9.238401E+9	4.751377E-7	2104653.215757	3.376843E+16	0	0	0.027814	0.332784	0	0
0	0	0	25.14149	4.87556	-5.227571	4.87556	8.203412E+9	4.392873E-7	2276414.636118	3.376843E+16	0	0	0.028411	0.330118	0	0
0	0	0	24.91965	4.875825	-5.781571	4.875825	7.276338E+9	4.023331E-7	2485502.665131	3.376842E+16	0	0	0.026706	0.327404	0	0
0	0	0	24.695457	4.87615	-6.341843	4.87615	6.445832E+9	3.712136E-7	2693866.668865	3.376842E+16	0	0	0.021468	0.32477	0	0
0	0	0	24.47017	4.876399	-6.904396	4.876399	5.706741E+9	3.394586E-7	2945867.041361	3.376842E+16	0	0	0.013411	0.321969	0	0
0	0	0	24.243281	4.87667	-7.471111	4.87667	5.048025E+9	3.114075E-7	3211226.829354	3.376841E+16	0	0	0.016276	0.319487	0	0
0	0	0	24.01378	4.877054	-8.045119	4.877054	4.459039E+9	2.903565E-7	3444041.757542	3.376841E+16	0	0	0.006849	0.316829	0	0
0	0	0	23.781926	4.877168	-8.62324	4.877168	3.933768E+9	2.604345E-7	3839736.479562	3.376841E+16	0	0	0.006901	0.314323	0	0
0	0	0	23.550317	4.877618	-9.20302	4.877618	3.470834E+9	2.460318E-7	4064514.70965	3.37684E+16	0	0	0.001294	0.311777	0	0
0	0	0	23.316846	4.877769	-9.785482	4.877769	3.059297E+9	2.221598E-7	4501264.250367	3.37684E+16	0	0	0.004564	0.309231	0	0
0	0	0	23.08153	4.878127	-10.373972	4.878127	2.693867E+9	2.075781E-7	4817464.290601	3.37684E+16	0	0	0.002136	0.306669	0	0
0	0	0	22.843452	4.878435	-10.969052	4.878435	2.36855E+9	1.926801E-7	5189950.278472	3.37684E+16	0	0	0.005876	0.30429	0	0
0	0	0	22.60629	4.87863	-11.561102	4.87863	2.083549E+9	1.756782E-7	5692224.406918	3.37684E+16	0	0	0.002169	0.30172	0	0
0	0	0	22.366595	4.878711	-12.158682	4.878711	1.830335E+9	1.567105E-7	6381195.104796	3.37684E+16	0	0	0.001766	0.299262	0	0
0	0	0	22.124728	4.878966	-12.762924	4.878966	1.606006E+9	1.444906E-7	6920865.67596	3.37684E+16	0	0	-0.001187	0.29678	0	0
0	0	0	21.879055	4.879367	-13.37774	4.879367	1.406275E+9	1.375224E-7	7271542.796824	3.376839E+16	0	0	0.000939	0.294393	0	0
0	0	0	21.634232	4.879383	-13.987694	4.879383	1.23195E+9	1.209016E-7	8271187.199732	3.376839E+16	0	0	0.002669	0.291903	0	0
0	0	0	21.387481	4.879735	-14.604927	4.879735	1.07811E+9	1.145868E-7	8727007.868916	3.376839E+16	0	0	0.004859	0.289525	0	0
0	0	0	21.137708	4.879811	-15.227684	4.879811	9.41941E+8	1.01937E-7	9809977.975262	3.376839E+16	0	0	-0.00035	0.287186	0	0
0	0	0	20.884684	4.880027	-15.85961	4.880027	8.215257E+8	9.378375E-8	1.066283E+7	3.376839E+16	0	0	0.004495	0.284816	0	0
0	0	0	20.631759	4.88039	-16.492437	4.88039	7.16542E+8	9.007712E-8	1.11016E+7	3.376839E+16	0	0	0.000533	0.282429	0	0
0	0	0	20.377478	4.880195	-17.124412	4.880195	6.245164E+8	7.446013E-8	1.343001E+7	3.376839E+16	0	0	-0.002596	0.280187	0	0
