Vload_(V)	ILoad_(A)	RsLoad_(ohm)	SunsVoc_Voltage_(V)	SunsVoc_Current_(A)	Model_Voltage_(V)	Model_Current_(A)	Carrier_Density_(cm-3)	Lifetime_(s)	Inverse_Lifetime_(s-1)	(Carrier_Density+Doping)/qWni^2_(cm^2/C)	Carrier_Density_at_Vmp_(cm-3)	Lifetime_at_Vmp_(s)	Efficiency_(%)	Intensity_(suns)	Dark_IV_Voltage_(V)	Dark_IV_Current_(A)
3.017906	4.634012	0	44.420738	-0.064465	44.37501	-0.064465	2.657418E+14	2.548623E-5	39236.752196	3.501468E+16	9.20459E+13	2.499582E-5	7.423339	1.120264	0	0
3.039817	4.619427	6.10621	44.284965	0.256488	44.403814	0.256488	2.475394E+14	2.548113E-5	39244.625112	3.492932E+16	0	0	7.431176	1.116384	0	0
4.999274	4.539723	6.945788	44.148505	0.562242	44.270042	0.562242	2.304647E+14	2.550493E-5	39208.022078	3.484924E+16	0	0	7.450759	1.11355	0	0
10.516284	4.246378	6.828489	44.014104	0.839332	43.991177	0.839332	2.147679E+14	2.550334E-5	39210.47491	3.477562E+16	0	0	7.443413	1.111251	0	0
16.060524	3.937421	6.251484	43.882038	1.092971	43.590692	1.092971	2.00359E+14	2.549651E-5	39220.98076	3.470805E+16	0	0	7.448015	1.106804	0	0
21.590884	3.687093	5.342269	43.749401	1.32509	43.077782	1.32509	1.868374E+14	2.544369E-5	39302.410694	3.464463E+16	0	0	7.46496	1.099251	0	0
27.007118	3.416905	4.325969	43.619622	1.54098	42.476288	1.54098	1.74471E+14	2.541801E-5	39342.127801	3.458663E+16	0	0	7.484697	1.090158	0	0
27.830352	3.37349	4.157264	43.489174	1.7473	41.779841	1.7473	1.628481E+14	2.542038E-5	39338.468319	3.453212E+16	0	0	7.505721	1.082502	0	0
28.653822	3.325697	3.990842	43.360882	1.933057	41.020561	1.933057	1.521579E+14	2.538516E-5	39393.052381	3.448199E+16	0	0	7.515649	1.074311	0	0
29.477797	3.275552	3.824234	43.23455	2.104516	40.205004	2.104516	1.423042E+14	2.53505E-5	39446.918917	3.443578E+16	0	0	7.532113	1.064108	0	0
30.308394	3.222136	3.65268	43.112252	2.26474	39.350299	2.26474	1.333629E+14	2.53643E-5	39425.454468	3.439384E+16	0	0	7.557914	1.053434	0	0
31.132203	3.165781	3.481047	42.986214	2.413709	38.425688	2.413709	1.247259E+14	2.531322E-5	39505.017737	3.435334E+16	0	0	7.576253	1.043287	0	0
31.965725	3.103695	3.309736	42.857448	2.553701	37.436716	2.553701	1.164705E+14	2.522845E-5	39637.768996	3.431462E+16	0	0	7.593777	1.033762	0	0
32.78328	3.038092	3.138382	42.731247	2.683102	36.422411	2.683102	1.089023E+14	2.515375E-5	39755.48981	3.427913E+16	0	0	7.610499	1.023759	0	0
33.628649	2.973291	2.95026	42.606989	2.803028	35.385197	2.803028	1.019248E+14	2.508408E-5	39865.908917	3.42464E+16	0	0	7.627898	1.013117	0	0
34.452276	2.892711	2.779	42.483026	2.916748	34.313228	2.916748	9.540361E+13	2.503401E-5	39945.637863	3.421582E+16	0	0	7.647211	1.003073	0	0
35.271638	2.802247	2.610881	42.357804	3.023272	33.203804	3.023272	8.923472E+13	2.496384E-5	40057.930213	3.418689E+16	0	0	7.660002	0.993445	0	0
36.101787	2.69755	2.444081	42.233432	3.122255	32.076251	3.122255	8.349816E+13	2.488844E-5	40179.278929	3.415998E+16	0	0	7.670062	0.983905	0	0
36.940219	2.573262	2.282997	42.111886	3.212794	30.952741	3.212794	7.824467E+13	2.480829E-5	40309.099727	3.413535E+16	0	0	7.681668	0.973646	0	0
37.77102	2.424698	2.13591	41.989377	3.297051	29.805837	3.297051	7.328066E+13	2.469867E-5	40488.004589	3.411207E+16	0	0	7.691758	0.963427	0	0
38.597948	2.250296	1.99962	41.869023	3.375151	28.660994	3.375151	6.870795E+13	2.459417E-5	40660.038198	3.409062E+16	0	0	7.704139	0.953998	0	0
39.416649	2.045786	1.882696	41.752263	3.447374	27.532415	3.447374	6.454225E+13	2.450916E-5	40801.059924	3.407108E+16	0	0	7.712619	0.944554	0	0
40.185868	1.826103	1.781426	41.636973	3.514366	26.40679	3.514366	6.067484E+13	2.441916E-5	40951.439805	3.405295E+16	0	0	7.718405	0.934966	0	0
40.964911	1.566337	1.697675	41.522418	3.577083	25.278103	3.577083	5.705987E+13	2.432695E-5	41106.667219	3.403599E+16	0	0	7.724817	0.925673	0	0
41.693952	1.294337	1.625917	41.408827	3.63581	24.149641	3.63581	5.368647E+13	2.423535E-5	41262.044091	3.402017E+16	0	0	7.72827	0.9165	0	0
42.337428	1.032343	1.559742	41.295775	3.690502	23.021141	3.690502	5.052576E+13	2.413064E-5	41441.080171	3.400535E+16	0	0	7.732086	0.907183	0	0
42.907781	0.777837	1.500436	41.184259	3.742021	21.89854	3.742021	4.758915E+13	2.404087E-5	41595.825165	3.399158E+16	0	0	7.734636	0.897922	0	0
43.418486	0.532647	1.431585	41.072007	3.790846	20.763769	3.790846	4.480448E+13	2.39448E-5	41762.71401	3.397852E+16	0	0	7.733581	0.888829	0	0
43.841441	0.31135	1.353793	40.957681	3.836606	19.609693	3.836606	4.213481E+13	2.381028E-5	41998.666056	3.3966E+16	0	0	7.732941	0.879895	0	0
30.956248	3.182666	3.512435	40.844694	3.88027	18.459517	3.88027	3.96519E+13	2.370521E-5	42184.812478	3.395435E+16	0	0	7.728446	0.871297	0	0
44.394135	0	0	40.733031	3.921206	17.31848	3.921206	3.734111E+13	2.360579E-5	42362.4846	3.394351E+16	0	0	7.723116	0.862818	0	0
0	0	0	40.622413	3.959251	16.187275	3.959251	3.518413E+13	2.349629E-5	42559.907384	3.39334E+16	0	0	7.716212	0.854396	0	0
0	0	0	40.514049	3.994739	15.075683	3.994739	3.319141E+13	2.3396E-5	42742.340238	3.392405E+16	0	0	7.709136	0.846061	0	0
0	0	0	40.406926	4.029208	13.967146	4.029208	3.1332E+13	2.334403E-5	42837.496963	3.391533E+16	0	0	7.700263	0.837854	0	0
0	0	0	40.301617	4.061834	12.872838	4.061834	2.960522E+13	2.331523E-5	42890.418848	3.390723E+16	0	0	7.689243	0.829822	0	0
0	0	0	40.19567	4.090969	11.784964	4.090969	2.796364E+13	2.320396E-5	43096.096607	3.389953E+16	0	0	7.67498	0.822078	0	0
0	0	0	40.090018	4.119307	10.694081	4.119307	2.641694E+13	2.312741E-5	43238.74311	3.389228E+16	0	0	7.660133	0.814254	0	0
0	0	0	39.98363	4.145746	9.600014	4.145746	2.494562E+13	2.302185E-5	43436.993792	3.388538E+16	0	0	7.644181	0.806654	0	0
0	0	0	39.879546	4.170367	8.529132	4.170367	2.358523E+13	2.292223E-5	43625.781104	3.3879E+16	0	0	7.625109	0.799245	0	0
0	0	0	39.775968	4.193358	7.465872	4.193358	2.230489E+13	2.280895E-5	43842.437828	3.3873E+16	0	0	7.607036	0.791932	0	0
0	0	0	39.673648	4.215459	6.411883	4.215459	2.110815E+13	2.272489E-5	44004.608209	3.386738E+16	0	0	7.588785	0.784532	0	0
0	0	0	39.571753	4.236128	5.364942	4.236128	1.998002E+13	2.262777E-5	44193.479753	3.386209E+16	0	0	7.564582	0.777378	0	0
0	0	0	39.470282	4.255934	4.3212	4.255934	1.891636E+13	2.254541E-5	44354.919431	3.38571E+16	0	0	7.533771	0.770161	0	0
0	0	0	39.370967	4.274298	3.301195	4.274298	1.793002E+13	2.246086E-5	44521.901123	3.385248E+16	0	0	7.504363	0.763024	0	0
0	0	0	39.272208	4.291616	2.288476	4.291616	1.700008E+13	2.237305E-5	44696.62244	3.384812E+16	0	0	7.471758	0.756062	0	0
0	0	0	39.171309	4.307649	1.262029	4.307649	1.609967E+13	2.222893E-5	44986.412948	3.384389E+16	0	0	7.435546	0.74914	0	0
0	0	0	39.071112	4.3232	0.240254	4.3232	1.525263E+13	2.211307E-5	45222.118886	3.383992E+16	0	0	7.399696	0.742331	0	0
0	0	0	38.973546	4.337576	-0.753108	4.337576	1.447058E+13	2.199668E-5	45461.396675	3.383625E+16	0	0	7.363884	0.735481	0	0
0	0	0	38.876518	4.351514	-1.742676	4.351514	1.373255E+13	2.190475E-5	45652.198974	3.383279E+16	0	0	7.326589	0.728758	0	0
0	0	0	38.778428	4.364556	-2.738077	4.364556	1.302462E+13	2.17811E-5	45911.354816	3.382947E+16	0	0	7.283515	0.722036	0	0
0	0	0	38.681597	4.377082	-3.721881	4.377082	1.236152E+13	2.168E-5	46125.452924	3.382636E+16	0	0	7.242179	0.71521	0	0
0	0	0	38.58434	4.388872	-4.706621	4.388872	1.172943E+13	2.15608E-5	46380.466822	3.38234E+16	0	0	7.195777	0.708616	0	0
0	0	0	38.487721	4.40014	-5.684558	4.40014	1.113344E+13	2.145125E-5	46617.336071	3.38206E+16	0	0	7.147392	0.701934	0	0
0	0	0	38.390971	4.410704	-6.660436	4.410704	1.056695E+13	2.1323E-5	46897.718555	3.381795E+16	0	0	7.093929	0.695339	0	0
0	0	0	38.294841	4.420949	-7.6311	4.420949	1.00326E+13	2.121817E-5	47129.428475	3.381544E+16	0	0	7.038714	0.688897	0	0
0	0	0	38.197046	4.430404	-8.612022	4.430404	9.516667E+12	2.10616E-5	47479.778769	3.381302E+16	0	0	6.980343	0.682693	0	0
0	0	0	38.100966	4.439605	-9.578065	4.439605	9.0356E+12	2.094337E-5	47747.797817	3.381076E+16	0	0	6.923868	0.676346	0	0
0	0	0	38.005898	4.448153	-10.531006	4.448153	8.583514E+12	2.081051E-5	48052.649062	3.380864E+16	0	0	6.853067	0.670055	0	0
0	0	0	37.910945	4.456374	-11.482232	4.456374	8.154526E+12	2.06854E-5	48343.278385	3.380663E+16	0	0	6.788458	0.66378	0	0
0	0	0	37.816367	4.464222	-12.428673	4.464222	7.748527E+12	2.056401E-5	48628.641777	3.380473E+16	0	0	6.714994	0.657809	0	0
0	0	0	37.722737	4.471765	-13.365704	4.471765	7.366489E+12	2.045908E-5	48878.042465	3.380294E+16	0	0	6.644636	0.651637	0	0
0	0	0	37.628437	4.478639	-14.303633	4.478639	7.000736E+12	2.030348E-5	49252.650834	3.380122E+16	0	0	6.568438	0.64561	0	0
0	0	0	37.535265	4.485235	-15.230348	4.485235	6.657178E+12	2.016299E-5	49595.815594	3.379961E+16	0	0	6.497529	0.639534	0	0
0	0	0	37.441928	4.491499	-16.156837	4.491499	6.329906E+12	2.001455E-5	49963.657975	3.379807E+16	0	0	6.420263	0.633674	0	0
0	0	0	37.349834	4.497689	-17.073176	4.497689	6.022748E+12	1.990797E-5	50231.146796	3.379663E+16	0	0	6.336939	0.627727	0	0
0	0	0	37.256334	4.503324	-17.997647	4.503324	5.726135E+12	1.974367E-5	50649.132528	3.379524E+16	0	0	6.252805	0.621915	0	0
0	0	0	37.162132	4.509	-18.930966	4.509	5.442054E+12	1.961603E-5	50978.725692	3.379391E+16	0	0	6.160238	0.616095	0	0
0	0	0	37.070348	4.514151	-19.837422	4.514151	5.178816E+12	1.94694E-5	51362.657383	3.379268E+16	0	0	6.068179	0.610426	0	0
0	0	0	36.977682	4.518931	-20.748958	4.518931	4.925954E+12	1.928802E-5	51845.66253	3.379149E+16	0	0	5.96708	0.60467	0	0
0	0	0	36.885326	4.523611	-21.65795	4.523611	4.686216E+12	1.912717E-5	52281.639882	3.379037E+16	0	0	5.870759	0.599209	0	0
0	0	0	36.793247	4.528111	-22.56359	4.528111	4.458807E+12	1.897229E-5	52708.442401	3.37893E+16	0	0	5.772584	0.593557	0	0
0	0	0	36.700614	4.532543	-23.474951	4.532543	4.241155E+12	1.883448E-5	53094.107554	3.378828E+16	0	0	5.674671	0.588096	0	0
0	0	0	36.608062	4.536806	-24.384757	4.536806	4.034299E+12	1.870141E-5	53471.907837	3.378731E+16	0	0	5.554815	0.582683	0	0
0	0	0	36.515738	4.540491	-25.286037	4.540491	3.838001E+12	1.849263E-5	54075.596628	3.378639E+16	0	0	5.432831	0.577199	0	0
0	0	0	36.423284	4.544402	-26.192853	4.544402	3.650992E+12	1.835924E-5	54468.472022	3.378551E+16	0	0	5.312899	0.571922	0	0
0	0	0	36.329834	4.548004	-27.105888	4.548004	3.471221E+12	1.818635E-5	54986.293158	3.378467E+16	0	0	5.194794	0.566636	0	0
0	0	0	36.235485	4.551628	-28.028748	4.551628	3.298696E+12	1.804261E-5	55424.363547	3.378386E+16	0	0	5.079046	0.561391	0	0
0	0	0	36.142753	4.55466	-28.929436	4.55466	3.137482E+12	1.781658E-5	56127.481262	3.37831E+16	0	0	4.944762	0.55629	0	0
0	0	0	36.050936	4.557702	-29.822811	4.557702	2.98562E+12	1.762999E-5	56721.540241	3.378239E+16	0	0	4.805113	0.55122	0	0
0	0	0	35.957976	4.560706	-30.727242	4.560706	2.83935E+12	1.745338E-5	57295.485857	3.37817E+16	0	0	4.666892	0.546175	0	0
0	0	0	35.864999	4.563689	-31.632523	4.563689	2.70022E+12	1.730224E-5	57795.989846	3.378105E+16	0	0	4.540836	0.541217	0	0
0	0	0	35.771402	4.566384	-32.540259	4.566384	2.567043E+12	1.710443E-5	58464.386225	3.378043E+16	0	0	4.408867	0.536219	0	0
0	0	0	35.677886	4.569218	-33.450244	4.569218	2.44054E+12	1.697267E-5	58918.242779	3.377983E+16	0	0	4.254968	0.531365	0	0
0	0	0	35.583733	4.571583	-34.359937	4.571583	2.319471E+12	1.674182E-5	59730.646152	3.377927E+16	0	0	4.09165	0.526655	0	0
0	0	0	35.489466	4.573794	-35.269107	4.573794	2.20427E+12	1.649437E-5	60626.730423	3.377873E+16	0	0	3.937724	0.521873	0	0
0	0	0	35.393124	4.576118	-36.200078	4.576118	2.092441E+12	1.628609E-5	61402.094093	3.37782E+16	0	0	3.801838	0.517075	0	0
0	0	0	35.297125	4.578272	-37.125989	4.578272	1.986653E+12	1.606036E-5	62265.086668	3.377771E+16	0	0	3.654331	0.512245	0	0
0	0	0	35.201731	4.580596	-38.04974	4.580596	1.886827E+12	1.591695E-5	62826.106963	3.377724E+16	0	0	3.485072	0.507574	0	0
0	0	0	35.106223	4.582446	-38.967704	4.582446	1.791906E+12	1.565866E-5	63862.444105	3.377679E+16	0	0	3.300732	0.502952	0	0
0	0	0	35.00962	4.584358	-39.89749	4.584358	1.700753E+12	1.543422E-5	64791.110919	3.377636E+16	0	0	3.139772	0.498457	0	0
0	0	0	34.912739	4.586351	-40.831881	4.586351	1.613993E+12	1.525945E-5	65533.174747	3.377596E+16	0	0	2.953553	0.494114	0	0
0	0	0	34.814502	4.588149	-41.776336	4.588149	1.530536E+12	1.503769E-5	66499.589065	3.377557E+16	0	0	2.758889	0.489651	0	0
0	0	0	34.715727	4.589844	-42.724711	4.589844	1.450971E+12	1.480296E-5	67554.06025	3.377519E+16	0	0	2.569418	0.485268	0	0
0	0	0	34.616135	4.591333	-43.677795	4.591333	1.374935E+12	1.451661E-5	68886.589686	3.377484E+16	0	0	2.366757	0.480845	0	0
0	0	0	34.514664	4.593079	-44.653355	4.593079	1.30156E+12	1.432811E-5	69792.852344	3.377449E+16	0	0	2.166052	0.47651	0	0
0	0	0	34.41205	4.594578	-45.63592	4.594578	1.231339E+12	1.407049E-5	71070.736257	3.377416E+16	0	0	1.970112	0.472279	0	0
0	0	0	34.310448	4.596221	-46.612127	4.596221	1.165543E+12	1.389771E-5	71954.299015	3.377385E+16	0	0	1.774087	0.468064	0	0
0	0	0	34.206756	4.597417	-47.60049	4.597417	1.102017E+12	1.356969E-5	73693.644128	3.377356E+16	0	0	1.598138	0.463912	0	0
0	0	0	34.101937	4.59886	-48.604247	4.59886	1.041318E+12	1.334833E-5	74915.715418	3.377327E+16	0	0	1.446998	0.459761	0	0
0	0	0	33.997542	4.599968	-49.598516	4.599968	9.841881E+11	1.302665E-5	76765.730948	3.3773E+16	0	0	1.305292	0.455649	0	0
0	0	0	33.890762	4.601261	-50.618864	4.601261	9.289936E+11	1.278157E-5	78237.665555	3.377275E+16	0	0	1.179615	0.451609	0	0
0	0	0	33.78315	4.602554	-51.647487	4.602554	8.764994E+11	1.25549E-5	79650.146301	3.37725E+16	0	0	1.052543	0.447761	0	0
0	0	0	33.675325	4.603887	-52.679362	4.603887	8.268761E+11	1.236842E-5	80851.053218	3.377227E+16	0	0	0.936001	0.443722	0	0
0	0	0	33.565491	4.604892	-53.724294	4.604892	7.792153E+11	1.205764E-5	82934.994042	3.377204E+16	0	0	0.82295	0.439802	0	0
0	0	0	33.452112	4.606015	-54.805012	4.606015	7.328959E+11	1.179573E-5	84776.434956	3.377183E+16	0	0	0.716964	0.43593	0	0
0	0	0	33.339468	4.607097	-55.878525	4.607097	6.896035E+11	1.154504E-5	86617.262284	3.377162E+16	0	0	0.616252	0.432281	0	0
0	0	0	33.225551	4.608029	-56.961474	4.608029	6.484214E+11	1.124529E-5	88926.094124	3.377143E+16	0	0	0.526962	0.428481	0	0
0	0	0	33.110163	4.608993	-58.059155	4.608993	6.092142E+11	1.097208E-5	91140.386061	3.377125E+16	0	0	0.441378	0.424681	0	0
0	0	0	32.993076	4.609956	-59.173122	4.609956	5.718521E+11	1.071151E-5	93357.518348	3.377107E+16	0	0	0.366939	0.421184	0	0
0	0	0	32.873588	4.610806	-60.307669	4.610806	5.36085E+11	1.040931E-5	96067.8396	3.37709E+16	0	0	0.303277	0.417456	0	0
0	0	0	32.752614	4.611635	-61.456066	4.611635	5.021511E+11	1.011171E-5	98895.24381	3.377074E+16	0	0	0.245812	0.413767	0	0
0	0	0	32.628797	4.61267	-62.635666	4.61267	4.69643E+11	9.915678E-6	100850.394362	3.377059E+16	0	0	0.195073	0.410119	0	0
0	0	0	32.501665	4.613453	-63.841506	4.613453	4.384527E+11	9.60982E-6	104060.222124	3.377044E+16	0	0	0.156531	0.406638	0	0
0	0	0	32.375921	4.614195	-65.033844	4.614195	4.096411E+11	9.314557E-6	107358.839849	3.377031E+16	0	0	0.124699	0.402878	0	0
0	0	0	32.249148	4.614834	-66.233956	4.614834	3.825097E+11	8.987521E-6	111265.385466	3.377018E+16	0	0	0.096347	0.399421	0	0
0	0	0	32.120447	4.615571	-67.454509	4.615571	3.568033E+11	8.71844E-6	114699.416394	3.377006E+16	0	0	0.074929	0.39594	0	0
0	0	0	31.989198	4.616082	-68.694332	4.616082	3.323663E+11	8.352579E-6	119723.504572	3.376995E+16	0	0	0.053452	0.392523	0	0
0	0	0	31.860024	4.616926	-69.922327	4.616926	3.099503E+11	8.174062E-6	122338.201608	3.376984E+16	0	0	0.038818	0.389162	0	0
0	0	0	31.727893	4.61739	-71.16993	4.61739	2.885844E+11	7.822928E-6	127829.369876	3.376974E+16	0	0	0.031885	0.385633	0	0
0	0	0	31.587072	4.618115	-72.505048	4.618115	2.674321E+11	7.580503E-6	131917.374873	3.376964E+16	0	0	0.023148	0.382296	0	0
0	0	0	31.446301	4.618718	-73.837269	4.618718	2.478366E+11	7.301811E-6	136952.319707	3.376955E+16	0	0	0.016956	0.378871	0	0
0	0	0	31.302654	4.619105	-75.191756	4.619105	2.293203E+11	6.931599E-6	144266.852082	3.376946E+16	0	0	0.014721	0.37563	0	0
0	0	0	31.156834	4.619882	-76.575902	4.619882	2.119383E+11	6.758539E-6	147960.962353	3.376938E+16	0	0	0.011428	0.372237	0	0
0	0	0	31.008255	4.620371	-77.979536	4.620371	1.955817E+11	6.460682E-6	154782.412923	3.376931E+16	0	0	0.005313	0.369028	0	0
0	0	0	30.855787	4.620912	-79.421091	4.620912	1.801085E+11	6.195106E-6	161417.740159	3.376923E+16	0	0	0.010579	0.365722	0	0
0	0	0	30.699824	4.621329	-80.892727	4.621329	1.655463E+11	5.881589E-6	170022.089346	3.376916E+16	0	0	0.003299	0.362513	0	0
0	0	0	30.540806	4.621926	-82.397623	4.621926	1.519105E+11	5.663809E-6	176559.639533	3.37691E+16	0	0	0.006158	0.359351	0	0
0	0	0	30.378783	4.622313	-83.925827	4.622313	1.391714E+11	5.360253E-6	186558.349929	3.376904E+16	0	0	0.002641	0.356158	0	0
0	0	0	30.214228	4.622725	-85.478635	4.622725	1.273263E+11	5.083079E-6	196731.173256	3.376899E+16	0	0	-0.000216	0.353132	0	0
0	0	0	30.045981	4.623229	-87.068638	4.623229	1.162571E+11	4.858328E-6	205832.110541	3.376893E+16	0	0	0.002685	0.350115	0	0
0	0	0	29.874353	4.623528	-88.685381	4.623528	1.059563E+11	4.55411E-6	219581.887112	3.376889E+16	0	0	0.003074	0.346929	0	0
0	0	0	29.6974	4.624033	-90.357576	4.624033	9.629059E+10	4.347867E-6	229997.829909	3.376884E+16	0	0	-0.000221	0.344039	0	0
0	0	0	29.516772	4.62426	-92.057265	4.62426	8.733295E+10	4.035156E-6	247821.897619	3.37688E+16	0	0	-0.002084	0.340981	0	0
0	0	0	29.33335	4.624852	-93.793008	4.624852	7.908909E+10	3.890293E-6	257050.048877	3.376876E+16	0	0	0.0009	0.337995	0	0
0	0	0	29.145191	4.625063	-95.563321	4.625063	7.144024E+10	3.597078E-6	278003.438995	3.376872E+16	0	0	0.00053	0.334994	0	0
0	0	0	28.953701	4.625521	-97.371767	4.625521	6.441497E+10	3.418294E-6	292543.571189	3.376869E+16	0	0	0.002824	0.332032	0	0
0	0	0	28.756901	4.625779	-99.224783	4.625779	5.791411E+10	3.16947E-6	315510.198876	3.376866E+16	0	0	0.000923	0.329333	0	0
0	0	0	28.555952	4.626206	-101.121654	4.626206	5.195267E+10	2.998782E-6	333468.75929	3.376863E+16	0	0	-0.005273	0.326531	0	0
0	0	0	28.352292	4.626515	-103.040918	4.626515	4.653661E+10	2.796836E-6	357546.942846	3.376861E+16	0	0	-0.001407	0.323713	0	0
0	0	0	28.143617	4.626613	-105.001393	4.626613	4.157232E+10	2.53164E-6	395000.849245	3.376858E+16	0	0	-0.002601	0.32107	0	0
0	0	0	27.932492	4.627035	-106.994367	4.627035	3.708843E+10	2.395136E-6	417512.84508	3.376856E+16	0	0	-0.000238	0.318244	0	0
0	0	0	27.713526	4.627205	-109.053791	4.627205	3.294822E+10	2.18092E-6	458522.065129	3.376854E+16	0	0	0.002964	0.315618	0	0
0	0	0	27.491947	4.627411	-111.138948	4.627411	2.922885E+10	1.995097E-6	501228.745982	3.376853E+16	0	0	0.006623	0.312903	0	0
0	0	0	27.265875	4.627786	-113.27157	4.627786	2.586646E+10	1.872081E-6	534164.922993	3.376851E+16	0	0	0.00057	0.31034	0	0
0	0	0	27.035247	4.627992	-115.442045	4.627992	2.283454E+10	1.709179E-6	585076.120237	3.37685E+16	0	0	-0.001067	0.30761	0	0
0	0	0	26.799717	4.628342	-117.66317	4.628342	2.010468E+10	1.597674E-6	625909.806069	3.376848E+16	0	0	-0.000662	0.305111	0	0
0	0	0	26.561313	4.628486	-119.90507	4.628486	1.767368E+10	1.441141E-6	693894.835114	3.376847E+16	0	0	-0.001501	0.302533	0	0
0	0	0	26.318352	4.628774	-122.194481	4.628774	1.54984E+10	1.333262E-6	750040.341186	3.376846E+16	0	0	0.003952	0.29993	0	0
0	0	0	26.071193	4.629011	-124.521875	4.629011	1.356005E+10	1.221707E-6	818526.990536	3.376845E+16	0	0	0.00017	0.297383	0	0
0	0	0	25.817761	4.629145	-126.904966	4.629145	1.182396E+10	1.094587E-6	913586.432727	3.376844E+16	0	0	-0.004529	0.2949	0	0
0	0	0	25.562581	4.629325	-129.306131	4.629325	1.03004E+10	9.901774E-7	1009920.070315	3.376844E+16	0	0	-0.002842	0.292457	0	0
0	0	0	25.303367	4.629541	-131.746554	4.629541	8.953614E+9	9.022918E-7	1108288.908249	3.376843E+16	0	0	-0.001129	0.29007	0	0
0	0	0	25.039334	4.629803	-134.234005	4.629803	7.762671E+9	8.310129E-7	1203350.766675	3.376842E+16	0	0	-0.000263	0.287627	0	0
0	0	0	24.770694	4.629916	-136.759751	4.629916	6.7134E+9	7.385501E-7	1354004.270358	3.376842E+16	0	0	0.005027	0.28528	0	0
0	0	0	24.501059	4.630066	-139.296232	4.630066	5.802832E+9	6.62503E-7	1509427.218874	3.376842E+16	0	0	0.003291	0.282813	0	0
0	0	0	24.224579	4.630194	-141.896375	4.630194	4.997244E+9	5.897446E-7	1695649.275596	3.376841E+16	0	0	0.003316	0.280506	0	0
0	0	0	23.944848	4.630379	-144.52922	4.630379	4.295938E+9	5.3281E-7	1876841.759093	3.376841E+16	0	0	0.002438	0.278366	0	0
