Vload_(V)	ILoad_(A)	RsLoad_(ohm)	SunsVoc_Voltage_(V)	SunsVoc_Current_(A)	Model_Voltage_(V)	Model_Current_(A)	Carrier_Density_(cm-3)	Lifetime_(s)	Inverse_Lifetime_(s-1)	(Carrier_Density+Doping)/qWni^2_(cm^2/C)	Carrier_Density_at_Vmp_(cm-3)	Lifetime_at_Vmp_(s)	Efficiency_(%)	Intensity_(suns)	Dark_IV_Voltage_(V)	Dark_IV_Current_(A)
1.62013	3.343543	0	43.817813	-0.047354	43.896041	-0.047354	1.936966E+14	2.574011E-5	38849.812958	3.46768E+16	5.71691E+13	2.429188E-5	5.045789	1.11735	0	0
1.748545	3.344975	-0.575488	43.67482	0.188081	43.324801	0.188081	1.796298E+14	2.565183E-5	38983.51858	3.461083E+16	0	0	5.043162	1.114701	0	0
4.615686	3.281941	9.47788	43.531827	0.409389	42.684382	0.409389	1.665625E+14	2.557981E-5	39093.284585	3.454955E+16	0	0	5.059588	1.109745	0	0
10.194739	3.135325	8.958128	43.391822	0.612394	41.998822	0.612394	1.546714E+14	2.551923E-5	39186.0991	3.449378E+16	0	0	5.068996	1.107455	0	0
15.71794	2.966287	8.004686	43.256653	0.79315	41.295774	0.79315	1.439819E+14	2.543922E-5	39309.35293	3.444364E+16	0	0	5.064314	1.105037	0	0
21.27179	2.762876	6.892087	43.12235	0.960548	40.559039	0.960548	1.340798E+14	2.535381E-5	39441.770996	3.439721E+16	0	0	5.069377	1.100872	0	0
26.769398	2.49642	5.724803	42.991657	1.116075	39.800088	1.116075	1.250873E+14	2.53049E-5	39518.005851	3.435503E+16	0	0	5.08146	1.093419	0	0
27.629834	2.44666	5.535663	42.863805	1.26314	39.015615	1.26314	1.168652E+14	2.531283E-5	39505.635856	3.431647E+16	0	0	5.101569	1.085806	0	0
28.458687	2.394274	5.357392	42.730547	1.397439	38.200999	1.397439	1.088618E+14	2.520649E-5	39672.305182	3.427894E+16	0	0	5.117129	1.079462	0	0
29.235787	2.340848	5.193713	42.599805	1.521079	37.378797	1.521079	1.015351E+14	2.510501E-5	39832.668737	3.424457E+16	0	0	5.126131	1.071483	0	0
30.042303	2.282802	5.023974	42.470271	1.63659	36.542889	1.63659	9.47565E+13	2.501443E-5	39976.916289	3.421278E+16	0	0	5.141214	1.061987	0	0
30.841381	2.219717	4.85801	42.342355	1.743206	35.702876	1.743206	8.850147E+13	2.491966E-5	40128.938366	3.418345E+16	0	0	5.158557	1.05194	0	0
31.670311	2.150386	4.684316	42.215271	1.842464	34.855472	1.842464	8.269158E+13	2.482337E-5	40284.600239	3.41562E+16	0	0	5.176326	1.042692	0	0
32.477717	2.076955	4.518094	42.089887	1.934234	34.00899	1.934234	7.732938E+13	2.472529E-5	40444.403769	3.413105E+16	0	0	5.197292	1.033443	0	0
33.295959	1.998277	4.345989	41.964649	2.020606	33.152994	2.020606	7.23172E+13	2.463233E-5	40597.046416	3.410755E+16	0	0	5.215387	1.023453	0	0
34.11431	1.910836	4.18157	41.837647	2.102306	32.279415	2.102306	6.756305E+13	2.452775E-5	40770.13857	3.408525E+16	0	0	5.232994	1.013367	0	0
34.92591	1.816601	4.020627	41.711495	2.178261	31.406246	2.178261	6.314752E+13	2.441902E-5	40951.680391	3.406454E+16	0	0	5.250231	1.003583	0	0
35.768748	1.709858	3.856401	41.589197	2.248854	30.54794	2.248854	5.914038E+13	2.434426E-5	41077.437643	3.404575E+16	0	0	5.261674	0.994048	0	0
36.600696	1.591634	3.706494	41.467178	2.313993	29.693371	2.313993	5.539386E+13	2.424472E-5	41246.095327	3.402818E+16	0	0	5.275043	0.984193	0	0
37.407279	1.466599	3.571949	41.346056	2.374746	28.842675	2.374746	5.190803E+13	2.414376E-5	41418.568186	3.401183E+16	0	0	5.290817	0.973923	0	0
38.235302	1.324243	3.448562	41.226079	2.431682	27.996447	2.431682	4.866998E+13	2.405115E-5	41578.051391	3.399664E+16	0	0	5.306324	0.964076	0	0
39.047038	1.17089	3.340567	41.106378	2.484928	27.152261	2.484928	4.563948E+13	2.395219E-5	41749.826978	3.398243E+16	0	0	5.324132	0.95482	0	0
39.856925	1.004817	3.241584	40.987903	2.53472	26.315202	2.53472	4.282476E+13	2.385859E-5	41913.627967	3.396923E+16	0	0	5.337224	0.945635	0	0
40.621103	0.83708	3.148692	40.870522	2.580945	25.487391	2.580945	4.020633E+13	2.375756E-5	42091.869033	3.395695E+16	0	0	5.349959	0.936371	0	0
41.323985	0.672057	3.06366	40.753648	2.624022	24.665463	2.624022	3.775745E+13	2.364626E-5	42289.980669	3.394547E+16	0	0	5.36121	0.927322	0	0
41.967602	0.513045	2.969532	40.640253	2.663452	23.868825	2.663452	3.552343E+13	2.353701E-5	42486.274427	3.393499E+16	0	0	5.372437	0.918257	0	0
42.526457	0.366488	2.872472	40.528769	2.700549	23.083656	2.700549	3.345537E+13	2.344563E-5	42651.867995	3.392529E+16	0	0	5.380686	0.909535	0	0
43.016378	0.230866	2.747844	40.418216	2.735717	22.303818	2.735717	3.152298E+13	2.33696E-5	42790.62777	3.391623E+16	0	0	5.389684	0.900542	0	0
27.182307	2.471512	5.639907	40.306145	2.768261	21.522748	2.768261	2.967747E+13	2.324606E-5	43018.035505	3.390757E+16	0	0	5.399676	0.891325	0	0
43.789451	0	0	40.19698	2.799118	20.757545	2.799118	2.798337E+13	2.316142E-5	43175.252942	3.389963E+16	0	0	5.409966	0.882125	0	0
0	0	0	40.087832	2.827991	19.996668	2.827991	2.638586E+13	2.306228E-5	43360.847398	3.389213E+16	0	0	5.417884	0.873339	0	0
0	0	0	39.979909	2.855122	19.245573	2.855122	2.489566E+13	2.296851E-5	43537.877103	3.388515E+16	0	0	5.426167	0.864434	0	0
0	0	0	39.87148	2.880619	18.495405	2.880619	2.348295E+13	2.285841E-5	43747.578447	3.387852E+16	0	0	5.434148	0.8556	0	0
0	0	0	39.764406	2.905471	17.749153	2.905471	2.216634E+13	2.280089E-5	43857.945598	3.387235E+16	0	0	5.439668	0.847046	0	0
0	0	0	39.659326	2.92916	17.01464	2.92916	2.094583E+13	2.277714E-5	43903.660383	3.386662E+16	0	0	5.445821	0.838659	0	0
0	0	0	39.55467	2.950427	16.294204	2.950427	1.979687E+13	2.269235E-5	44067.717516	3.386123E+16	0	0	5.451692	0.830464	0	0
0	0	0	39.450683	2.970935	15.576946	2.970935	1.871753E+13	2.263597E-5	44177.473789	3.385617E+16	0	0	5.451591	0.822325	0	0
0	0	0	39.346109	2.990147	14.8609	2.990147	1.769128E+13	2.255799E-5	44330.18173	3.385136E+16	0	0	5.456598	0.814305	0	0
0	0	0	39.243348	3.007869	14.161192	3.007869	1.673752E+13	2.246864E-5	44506.477889	3.384689E+16	0	0	5.457494	0.806517	0	0
0	0	0	39.141469	3.024582	13.469509	3.024582	1.584261E+13	2.238168E-5	44679.403892	3.384269E+16	0	0	5.457971	0.798665	0	0
0	0	0	39.038789	3.040599	12.774501	3.040599	1.498898E+13	2.22953E-5	44852.500776	3.383868E+16	0	0	5.454783	0.791076	0	0
0	0	0	38.934999	3.055681	12.076832	3.055681	1.417275E+13	2.218571E-5	45074.062416	3.383486E+16	0	0	5.452911	0.783336	0	0
0	0	0	38.834051	3.070213	11.3951	3.070213	1.342146E+13	2.212667E-5	45194.333401	3.383133E+16	0	0	5.455345	0.775588	0	0
0	0	0	38.734736	3.083563	10.728811	3.083563	1.272113E+13	2.204906E-5	45353.406833	3.382805E+16	0	0	5.451393	0.768207	0	0
0	0	0	38.635373	3.096175	10.065189	3.096175	1.205697E+13	2.196336E-5	45530.375398	3.382493E+16	0	0	5.444966	0.760833	0	0
0	0	0	38.537087	3.107927	9.411936	3.107927	1.143408E+13	2.186759E-5	45729.777757	3.382201E+16	0	0	5.443422	0.753436	0	0
0	0	0	38.438916	3.119129	8.76118	3.119129	1.084399E+13	2.177425E-5	45925.800597	3.381925E+16	0	0	5.437939	0.74639	0	0
0	0	0	38.342035	3.12959	8.121561	3.12959	1.029147E+13	2.167518E-5	46135.708358	3.381665E+16	0	0	5.433336	0.739352	0	0
0	0	0	38.245465	3.139795	7.483217	3.139795	9.768706E+12	2.160468E-5	46286.269102	3.38142E+16	0	0	5.427977	0.732338	0	0
0	0	0	38.149385	3.149229	6.852402	3.149229	9.274914E+12	2.150849E-5	46493.258183	3.381189E+16	0	0	5.420571	0.725324	0	0
0	0	0	38.052929	3.158099	6.222511	3.158099	8.804267E+12	2.139365E-5	46742.85184	3.380968E+16	0	0	5.414152	0.718389	0	0
0	0	0	37.956554	3.166769	5.592626	3.166769	8.357843E+12	2.130491E-5	46937.542023	3.380759E+16	0	0	5.405516	0.711639	0	0
0	0	0	37.861438	3.174878	4.973199	3.174878	7.939421E+12	2.121136E-5	47144.550968	3.380562E+16	0	0	5.395163	0.704832	0	0
0	0	0	37.76735	3.182333	4.364203	3.182333	7.546117E+12	2.10929E-5	47409.32882	3.380378E+16	0	0	5.383268	0.698345	0	0
0	0	0	37.67354	3.189645	3.756254	3.189645	7.173352E+12	2.100354E-5	47611.028165	3.380203E+16	0	0	5.374759	0.691929	0	0
0	0	0	37.580188	3.196413	3.15475	3.196413	6.820669E+12	2.088952E-5	47870.888787	3.380038E+16	0	0	5.364177	0.685513	0	0
0	0	0	37.487342	3.202875	2.557605	3.202875	6.487084E+12	2.078064E-5	48121.709475	3.379881E+16	0	0	5.350308	0.679042	0	0
0	0	0	37.394218	3.209081	1.959962	3.209081	6.168875E+12	2.067332E-5	48371.535035	3.379732E+16	0	0	5.335818	0.672642	0	0
0	0	0	37.301748	3.215085	1.366611	3.215085	5.868333E+12	2.058528E-5	48578.405436	3.379591E+16	0	0	5.316671	0.666426	0	0
0	0	0	37.209424	3.220664	0.777276	3.220664	5.582865E+12	2.047312E-5	48844.536856	3.379457E+16	0	0	5.301015	0.660218	0	0
0	0	0	37.116725	3.226087	0.186076	3.226087	5.310196E+12	2.037233E-5	49086.188262	3.379329E+16	0	0	5.285536	0.653874	0	0
0	0	0	37.022932	3.231051	-0.407538	3.231051	5.047849E+12	2.022042E-5	49454.949686	3.379206E+16	0	0	5.269879	0.647546	0	0
0	0	0	36.930674	3.235889	-0.992237	3.235889	4.802437E+12	2.010189E-5	49746.574822	3.379091E+16	0	0	5.256887	0.641521	0	0
0	0	0	36.838938	3.240549	-1.573127	3.240549	4.570239E+12	1.99954E-5	50011.499291	3.378982E+16	0	0	5.238646	0.635489	0	0
0	0	0	36.747595	3.244979	-2.150274	3.244979	4.350182E+12	1.988822E-5	50281.008293	3.378879E+16	0	0	5.220145	0.629496	0	0
0	0	0	36.65635	3.249046	-2.723623	3.249046	4.140934E+12	1.974623E-5	50642.566031	3.378781E+16	0	0	5.197493	0.623535	0	0
0	0	0	36.564076	3.253101	-3.303844	3.253101	3.939555E+12	1.962829E-5	50946.866684	3.378686E+16	0	0	5.17652	0.61771	0	0
0	0	0	36.471801	3.256852	-3.88139	3.256852	3.747963E+12	1.948174E-5	51330.117269	3.378597E+16	0	0	5.154868	0.611909	0	0
0	0	0	36.380964	3.260473	-4.450031	3.260473	3.568456E+12	1.935722E-5	51660.299407	3.378512E+16	0	0	5.135571	0.606299	0	0
0	0	0	36.289588	3.263927	-5.020621	3.263927	3.396552E+12	1.922389E-5	52018.621415	3.378432E+16	0	0	5.112393	0.600641	0	0
0	0	0	36.198294	3.267231	-5.589752	3.267231	3.233068E+12	1.909085E-5	52381.113189	3.378355E+16	0	0	5.083343	0.595103	0	0
0	0	0	36.106575	3.270272	-6.158824	3.270272	3.076744E+12	1.892186E-5	52848.920205	3.378282E+16	0	0	5.055918	0.589526	0	0
0	0	0	36.015019	3.273268	-6.727181	3.273268	2.928234E+12	1.877639E-5	53258.38146	3.378212E+16	0	0	5.032928	0.584012	0	0
0	0	0	35.924673	3.276212	-7.288649	3.276212	2.78871E+12	1.866356E-5	53580.352107	3.378147E+16	0	0	5.007552	0.578593	0	0
0	0	0	35.833966	3.278944	-7.850157	3.278944	2.655316E+12	1.852241E-5	53988.652497	3.378084E+16	0	0	4.976606	0.573199	0	0
0	0	0	35.742835	3.281527	-8.412841	3.281527	2.52772E+12	1.836671E-5	54446.33857	3.378024E+16	0	0	4.940819	0.568116	0	0
0	0	0	35.652505	3.284046	-8.970709	3.284046	2.407295E+12	1.823236E-5	54847.523977	3.377968E+16	0	0	4.912732	0.562913	0	0
0	0	0	35.560802	3.286454	-9.535676	3.286454	2.290906E+12	1.808267E-5	55301.565824	3.377913E+16	0	0	4.879337	0.557782	0	0
0	0	0	35.468969	3.288635	-10.098907	3.288635	2.179988E+12	1.789073E-5	55894.872221	3.377861E+16	0	0	4.845629	0.552651	0	0
0	0	0	35.376744	3.290905	-10.666242	3.290905	2.074E+12	1.77549E-5	56322.483622	3.377812E+16	0	0	4.813167	0.547672	0	0
0	0	0	35.283734	3.292946	-11.235505	3.292946	1.972327E+12	1.756537E-5	56930.196097	3.377764E+16	0	0	4.781413	0.542629	0	0
0	0	0	35.189598	3.295008	-11.812197	3.295008	1.874495E+12	1.740357E-5	57459.468295	3.377718E+16	0	0	4.746706	0.537833	0	0
0	0	0	35.097013	3.2969	-12.377968	3.2969	1.783009E+12	1.722568E-5	58052.84906	3.377675E+16	0	0	4.710026	0.532886	0	0
0	0	0	35.004134	3.298807	-12.946174	3.298807	1.695718E+12	1.708054E-5	58546.147728	3.377634E+16	0	0	4.664978	0.52817	0	0
0	0	0	34.910782	3.300472	-13.514116	3.300472	1.612287E+12	1.686801E-5	59283.82555	3.377595E+16	0	0	4.63322	0.523454	0	0
0	0	0	34.817315	3.302192	-14.083996	3.302192	1.532865E+12	1.67043E-5	59864.824019	3.377558E+16	0	0	4.596547	0.51865	0	0
0	0	0	34.723897	3.303931	-14.654338	3.303931	1.457393E+12	1.657904E-5	60317.113213	3.377522E+16	0	0	4.550441	0.513982	0	0
0	0	0	34.629418	3.305362	-15.226704	3.305362	1.384841E+12	1.634419E-5	61183.814228	3.377488E+16	0	0	4.510797	0.509258	0	0
0	0	0	34.535984	3.306715	-15.792174	3.306715	1.316644E+12	1.611011E-5	62072.810559	3.377456E+16	0	0	4.468011	0.504654	0	0
0	0	0	34.441569	3.308045	-16.363387	3.308045	1.251142E+12	1.58823E-5	62963.175733	3.377426E+16	0	0	4.417083	0.500193	0	0
0	0	0	34.345783	3.309523	-16.945272	3.309523	1.188017E+12	1.573631E-5	63547.292672	3.377396E+16	0	0	4.370612	0.495565	0	0
0	0	0	34.248804	3.310857	-17.532274	3.310857	1.127349E+12	1.554206E-5	64341.518168	3.377368E+16	0	0	4.322542	0.491088	0	0
0	0	0	34.152871	3.312102	-18.112144	3.312102	1.070384E+12	1.534098E-5	65184.889167	3.377341E+16	0	0	4.273282	0.48658	0	0
0	0	0	34.055337	3.313228	-18.699829	3.313228	1.015418E+12	1.509387E-5	66252.043655	3.377315E+16	0	0	4.227808	0.482263	0	0
0	0	0	33.957884	3.314362	-19.287472	3.314362	9.633164E+11	1.487553E-5	67224.518014	3.377291E+16	0	0	4.170475	0.477914	0	0
0	0	0	33.860481	3.315498	-19.875209	3.315498	9.139122E+11	1.468474E-5	68097.894021	3.377267E+16	0	0	4.119612	0.473581	0	0
0	0	0	33.761918	3.316505	-20.467926	3.316505	8.66498E+11	1.44414E-5	69245.342992	3.377245E+16	0	0	4.073733	0.469391	0	0
0	0	0	33.662571	3.317494	-21.065211	3.317494	8.211953E+11	1.420556E-5	70394.971071	3.377224E+16	0	0	4.025621	0.465003	0	0
0	0	0	33.562194	3.31856	-21.670101	3.31856	7.778281E+11	1.402953E-5	71278.236344	3.377204E+16	0	0	3.968308	0.460837	0	0
0	0	0	33.460625	3.319422	-22.278857	3.319422	7.362762E+11	1.37547E-5	72702.428878	3.377184E+16	0	0	3.912034	0.456807	0	0
0	0	0	33.35953	3.320343	-22.886101	3.320343	6.971223E+11	1.35405E-5	73852.511515	3.377166E+16	0	0	3.856592	0.45273	0	0
0	0	0	33.256083	3.32119	-23.506122	3.32119	6.592116E+11	1.328949E-5	75247.413049	3.377148E+16	0	0	3.787068	0.448724	0	0
0	0	0	33.153959	3.322138	-24.120375	3.322138	6.238084E+11	1.31323E-5	76148.13376	3.377131E+16	0	0	3.731809	0.44467	0	0
0	0	0	33.050332	3.322963	-24.741586	3.322963	5.89827E+11	1.291465E-5	77431.47002	3.377115E+16	0	0	3.678451	0.440625	0	0
0	0	0	32.947587	3.32385	-25.358978	3.32385	5.579626E+11	1.276758E-5	78323.372988	3.377101E+16	0	0	3.607837	0.436739	0	0
0	0	0	32.843307	3.324434	-25.980258	3.324434	5.273816E+11	1.243645E-5	80408.803161	3.377086E+16	0	0	3.553945	0.432924	0	0
0	0	0	32.737361	3.325169	-26.614189	3.325169	4.980278E+11	1.221434E-5	81870.9717	3.377072E+16	0	0	3.491076	0.429166	0	0
0	0	0	32.632329	3.325816	-27.241384	3.325816	4.705404E+11	1.196107E-5	83604.526697	3.37706E+16	0	0	3.420028	0.425519	0	0
0	0	0	32.524847	3.326462	-27.883138	3.326462	4.439815E+11	1.171297E-5	85375.446044	3.377047E+16	0	0	3.348676	0.421832	0	0
0	0	0	32.417561	3.327164	-28.524963	3.327164	4.18966E+11	1.152664E-5	86755.55208	3.377035E+16	0	0	3.279267	0.418114	0	0
0	0	0	32.305636	3.327695	-29.191067	3.327695	3.943697E+11	1.121384E-5	89175.546697	3.377024E+16	0	0	3.209312	0.414324	0	0
0	0	0	32.196455	3.328267	-29.842007	3.328267	3.717684E+11	1.09671E-5	91181.786538	3.377013E+16	0	0	3.139895	0.410709	0	0
0	0	0	32.085707	3.328758	-30.500795	3.328758	3.501654E+11	1.067261E-5	93697.761697	3.377003E+16	0	0	3.056137	0.407198	0	0
0	0	0	31.973145	3.32943	-31.17382	3.32943	3.294945E+11	1.052079E-5	95049.872513	3.376993E+16	0	0	2.97873	0.403695	0	0
0	0	0	31.860027	3.329958	-31.847564	3.329958	3.099508E+11	1.02812E-5	97264.908472	3.376984E+16	0	0	2.895027	0.400072	0	0
0	0	0	31.745832	3.330448	-32.52709	3.330448	2.913963E+11	1.002775E-5	99723.28832	3.376975E+16	0	0	2.818692	0.396481	0	0
0	0	0	31.636259	3.331064	-33.182093	3.331064	2.74638E+11	9.91766E-6	100830.234708	3.376968E+16	0	0	2.739996	0.393026	0	0
0	0	0	31.518405	3.331365	-33.879725	3.331365	2.576872E+11	9.535608E-6	104870.080763	3.37696E+16	0	0	2.656299	0.389738	0	0
0	0	0	31.397822	3.331974	-34.599565	3.331974	2.414263E+11	9.403847E-6	106339.455285	3.376952E+16	0	0	2.571134	0.386395	0	0
0	0	0	31.277485	3.332409	-35.314704	3.332409	2.262215E+11	9.155544E-6	109223.437975	3.376945E+16	0	0	2.483245	0.382892	0	0
0	0	0	31.155482	3.33281	-36.039106	3.33281	2.117834E+11	8.891625E-6	112465.385009	3.376938E+16	0	0	2.406463	0.379564	0	0
0	0	0	31.031845	3.333207	-36.773166	3.333207	1.980918E+11	8.636588E-6	115786.464796	3.376932E+16	0	0	2.319106	0.376372	0	0
0	0	0	30.906852	3.333534	-37.513887	3.333534	1.851495E+11	8.336044E-6	119960.985599	3.376926E+16	0	0	2.236313	0.373124	0	0
0	0	0	30.779899	3.33395	-38.26808	3.33395	1.728696E+11	8.120548E-6	123144.399071	3.37692E+16	0	0	2.157761	0.369917	0	0
0	0	0	30.651297	3.334192	-39.028478	3.334192	1.612602E+11	7.770942E-6	128684.524041	3.376914E+16	0	0	2.085547	0.366653	0	0
0	0	0	30.518758	3.334637	-39.816391	3.334637	1.501106E+11	7.595492E-6	131657.041112	3.376909E+16	0	0	2.01776	0.363405	0	0
0	0	0	30.385581	3.334838	-40.603012	3.334838	1.396838E+11	7.231E-6	138293.449675	3.376904E+16	0	0	1.941647	0.360301	0	0
0	0	0	30.251229	3.335206	-41.400204	3.335206	1.298987E+11	7.020951E-6	142430.842166	3.3769E+16	0	0	1.867791	0.357269	0	0
0	0	0	30.114475	3.335632	-42.212933	3.335632	1.206423E+11	6.872496E-6	145507.546738	3.376895E+16	0	0	1.796891	0.354093	0	0
0	0	0	29.975615	3.335841	-43.03343	3.335841	1.119179E+11	6.5478E-6	152723.040856	3.376891E+16	0	0	1.726066	0.351236	0	0
0	0	0	29.834353	3.336238	-43.872296	3.336238	1.036898E+11	6.396178E-6	156343.36727	3.376887E+16	0	0	1.649986	0.3481	0	0
0	0	0	29.690232	3.336479	-44.724656	3.336479	9.591821E+10	6.119026E-6	163424.699754	3.376884E+16	0	0	1.579979	0.345132	0	0
0	0	0	29.542878	3.336698	-45.595626	3.336698	8.857414E+10	5.831478E-6	171483.108526	3.37688E+16	0	0	1.511821	0.342147	0	0
0	0	0	29.393416	3.337051	-46.482109	3.337051	8.169925E+10	5.670999E-6	176335.789447	3.376877E+16	0	0	1.433084	0.339163	0	0
0	0	0	29.241455	3.337374	-47.382757	3.337374	7.525622E+10	5.497216E-6	181910.259405	3.376874E+16	0	0	1.359188	0.336195	0	0
0	0	0	29.08755	3.337645	-48.293772	3.337645	6.92485E+10	5.29081E-6	189006.985492	3.376871E+16	0	0	1.284825	0.33333	0	0
0	0	0	28.930002	3.337827	-49.224242	3.337827	6.359503E+10	5.013616E-6	199456.843063	3.376869E+16	0	0	1.220362	0.330393	0	0
0	0	0	28.770364	3.338027	-50.167527	3.338027	5.833713E+10	4.766326E-6	209805.184776	3.376866E+16	0	0	1.147508	0.327776	0	0
0	0	0	28.60625	3.338272	-51.138283	3.338272	5.338462E+10	4.564457E-6	219084.128345	3.376864E+16	0	0	1.082707	0.324951	0	0
0	0	0	28.438999	3.338454	-52.126077	3.338454	4.876979E+10	4.319026E-6	231533.702595	3.376862E+16	0	0	1.01413	0.32207	0	0
0	0	0	28.269805	3.33867	-53.126205	3.33867	4.45071E+10	4.115702E-6	242971.92064	3.37686E+16	0	0	0.946998	0.319533	0	0
0	0	0	28.097344	3.338955	-54.147384	3.338955	4.054532E+10	3.982877E-6	251074.815723	3.376858E+16	0	0	0.882163	0.31686	0	0
0	0	0	27.923429	3.338882	-55.16831	3.338882	3.690718E+10	3.568102E-6	280261.0502	3.376856E+16	0	0	0.811644	0.31425	0	0
0	0	0	27.745529	3.339338	-56.225962	3.339338	3.352318E+10	3.592491E-6	278358.399331	3.376855E+16	0	0	0.756039	0.311641	0	0
0	0	0	27.559934	3.339438	-57.320063	3.339438	3.032308E+10	3.329003E-6	300390.194551	3.376853E+16	0	0	0.696017	0.308944	0	0
0	0	0	27.37287	3.339564	-58.423532	3.339564	2.740667E+10	3.104338E-6	322129.900045	3.376852E+16	0	0	0.635911	0.306494	0	0
0	0	0	27.181249	3.339724	-59.554741	3.339724	2.47098E+10	2.915861E-6	342951.831273	3.37685E+16	0	0	0.570258	0.303869	0	0
0	0	0	26.986393	3.339798	-60.702826	3.339798	2.223939E+10	2.676467E-6	373626.899766	3.376849E+16	0	0	0.520361	0.301355	0	0
0	0	0	26.785395	3.339958	-61.889342	3.339958	1.994962E+10	2.507784E-6	398758.369839	3.376848E+16	0	0	0.472561	0.298794	0	0
0	0	0	26.580248	3.340184	-63.10215	3.340184	1.785551E+10	2.395771E-6	417402.172215	3.376847E+16	0	0	0.422531	0.296304	0	0
0	0	0	26.371165	3.340351	-64.336642	3.340351	1.594725E+10	2.251679E-6	444113.076257	3.376846E+16	0	0	0.375518	0.293711	0	0
0	0	0	26.157492	3.340437	-65.596001	3.340437	1.420763E+10	2.061229E-6	485147.375995	3.376845E+16	0	0	0.331321	0.291213	0	0
0	0	0	25.939114	3.340533	-66.883397	3.340533	1.262563E+10	1.89047E-6	528968.86081	3.376845E+16	0	0	0.290904	0.288867	0	0
0	0	0	25.713908	3.340789	-68.215505	3.340789	1.117844E+10	1.829309E-6	546654.536424	3.376844E+16	0	0	0.253743	0.286417	0	0
0	0	0	25.485403	3.340897	-69.562979	3.340897	9.879503E+9	1.682506E-6	594351.620306	3.376843E+16	0	0	0.221637	0.283912	0	0
0	0	0	25.250952	3.340886	-70.942094	3.340886	8.703479E+9	1.47611E-6	677456.121958	3.376843E+16	0	0	0.183083	0.281661	0	0
0	0	0	25.011878	3.34103	-72.352935	3.34103	7.648309E+9	1.371845E-6	728945.153393	3.376842E+16	0	0	0.156342	0.279267	0	0
