Vload_(V)	ILoad_(A)	RsLoad_(ohm)	SunsVoc_Voltage_(V)	SunsVoc_Current_(A)	Model_Voltage_(V)	Model_Current_(A)	Carrier_Density_(cm-3)	Lifetime_(s)	Inverse_Lifetime_(s-1)	(Carrier_Density+Doping)/qWni^2_(cm^2/C)	Carrier_Density_at_Vmp_(cm-3)	Lifetime_at_Vmp_(s)	Efficiency_(%)	Intensity_(suns)	Dark_IV_Voltage_(V)	Dark_IV_Current_(A)
4.650149	8.488531	0	37.577816	-0.330356	37.73436	-0.330356	2.257131E+14	1.796284E-5	55670.403086	5.930209E+16	1.222397E+13	1.411012E-5	13.477638	1.145038	0	0
4.685585	8.486109	1.719408	37.459423	0.282533	37.324827	0.282533	2.092986E+14	1.790058E-5	55864.034988	5.922511E+16	0	0	13.439016	1.142824	0	0
4.744923	8.4871	1.490325	37.337518	0.868846	36.92135	0.868846	1.936252E+14	1.783434E-5	56071.533262	5.915161E+16	0	0	13.461364	1.137831	0	0
4.974417	8.486616	1.587111	37.223191	1.381675	36.558016	1.381675	1.799797E+14	1.777371E-5	56262.812465	5.908761E+16	0	0	13.475998	1.134948	0	0
6.718548	8.474231	2.133647	37.10898	1.847341	36.215121	1.847341	1.672957E+14	1.767954E-5	56562.522581	5.902812E+16	0	0	13.455061	1.132216	0	0
9.490492	8.461807	2.016684	36.996499	2.278645	35.888482	2.278645	1.556674E+14	1.759325E-5	56839.942185	5.897359E+16	0	0	13.464376	1.127407	0	0
12.252256	8.450635	1.797011	36.885113	2.681043	35.575056	2.681043	1.449399E+14	1.751588E-5	57091.026845	5.892328E+16	0	0	13.470016	1.119539	0	0
14.965925	8.447564	1.498503	36.773025	3.063875	35.268577	3.063875	1.348832E+14	1.74509E-5	57303.617677	5.887611E+16	0	0	13.489836	1.11179	0	0
17.664158	8.435196	1.253459	36.6603	3.424546	34.970518	3.424546	1.25466E+14	1.738865E-5	57508.753269	5.883195E+16	0	0	13.50193	1.105284	0	0
20.368968	8.427465	0.970892	36.54782	3.753319	34.686806	3.753319	1.167187E+14	1.729949E-5	57805.150358	5.879092E+16	0	0	13.500436	1.097185	0	0
23.074823	8.41185	0.713378	36.437577	4.055642	34.417126	4.055642	1.087325E+14	1.72149E-5	58089.182054	5.875347E+16	0	0	13.519979	1.087549	0	0
23.794037	8.404377	0.654179	36.328004	4.336494	34.157504	4.336494	1.01332E+14	1.712843E-5	58382.460962	5.871876E+16	0	0	13.542088	1.07738	0	0
24.525601	8.387015	0.618866	36.220833	4.592117	33.911891	4.592117	9.457754E+13	1.70355E-5	58700.918341	5.868708E+16	0	0	13.554609	1.068087	0	0
25.183771	8.352485	0.616062	36.113939	4.828221	33.675275	4.828221	8.828598E+13	1.692801E-5	59073.66706	5.865758E+16	0	0	13.572495	1.058905	0	0
25.838605	8.308189	0.60654	36.009724	5.047931	33.448868	5.047931	8.255263E+13	1.683948E-5	59384.229546	5.863069E+16	0	0	13.58316	1.048624	0	0
26.523965	8.240628	0.599459	35.905656	5.254296	33.228446	5.254296	7.719665E+13	1.675171E-5	59695.402125	5.860557E+16	0	0	13.601218	1.03808	0	0
27.196126	8.155343	0.588027	35.802601	5.44888	33.014269	5.44888	7.223335E+13	1.667808E-5	59958.919874	5.858229E+16	0	0	13.623862	1.027998	0	0
27.877524	8.034294	0.580154	35.699448	5.629408	32.806349	5.629408	6.758318E+13	1.658968E-5	60278.446147	5.856048E+16	0	0	13.636151	1.018275	0	0
28.547961	7.881449	0.570548	35.596311	5.79936	32.603112	5.79936	6.323154E+13	1.650241E-5	60597.194	5.854008E+16	0	0	13.651105	1.008416	0	0
29.22196	7.682551	0.56137	35.494138	5.956103	32.40706	5.956103	5.919561E+13	1.640531E-5	60955.85913	5.852115E+16	0	0	13.666321	0.997968	0	0
29.884482	7.440179	0.55058	35.393631	6.102501	32.217593	6.102501	5.547581E+13	1.631773E-5	61283.022293	5.85037E+16	0	0	13.680924	0.987926	0	0
30.550822	7.138649	0.54047	35.289726	6.241815	32.027349	6.241815	5.187481E+13	1.620468E-5	61710.553834	5.848681E+16	0	0	13.697461	0.978267	0	0
31.209941	6.781353	0.530905	35.189007	6.369717	31.846097	6.369717	4.860659E+13	1.610032E-5	62110.57967	5.847149E+16	0	0	13.712024	0.968615	0	0
31.857213	6.365385	0.522064	35.090999	6.488271	31.672307	6.488271	4.562342E+13	1.600787E-5	62469.262181	5.84575E+16	0	0	13.72292	0.958891	0	0
32.501822	5.888778	0.513387	34.993546	6.600162	31.502181	6.600162	4.283809E+13	1.592119E-5	62809.386497	5.844443E+16	0	0	13.736381	0.949176	0	0
33.141598	5.35477	0.503978	34.895865	6.705006	31.33507	6.705006	4.021632E+13	1.582542E-5	63189.481783	5.843214E+16	0	0	13.751483	0.93958	0	0
33.774338	4.758178	0.495325	34.799377	6.80404	31.171986	6.80404	3.778364E+13	1.574226E-5	63523.272491	5.842073E+16	0	0	13.761733	0.93039	0	0
34.383368	4.123013	0.486481	34.702643	6.896043	31.011975	6.896043	3.549208E+13	1.564182E-5	63931.168568	5.840998E+16	0	0	13.770446	0.921168	0	0
34.979431	3.445337	0.484041	34.607298	6.982117	30.856365	6.982117	3.336909E+13	1.554648E-5	64323.251867	5.840002E+16	0	0	13.781038	0.911987	0	0
35.564819	2.726895	0.485235	34.51303	7.062877	30.704511	7.062877	3.139466E+13	1.545517E-5	64703.252392	5.839076E+16	0	0	13.792865	0.903219	0	0
36.116865	2.004712	0.488577	34.419351	7.138293	30.555903	7.138293	2.954802E+13	1.535855E-5	65110.317388	5.83821E+16	0	0	13.806242	0.894387	0	0
36.621413	1.321415	0.484923	34.325149	7.209678	30.40858	7.209678	2.780036E+13	1.525675E-5	65544.766315	5.837391E+16	0	0	13.818355	0.885492	0	0
37.013013	0.75815	0.478922	34.232646	7.276266	30.265549	7.276266	2.618462E+13	1.515936E-5	65965.865245	5.836633E+16	0	0	13.825512	0.876884	0	0
28.392855	7.919466	0.573507	34.141025	7.33909	30.125333	7.33909	2.46767E+13	1.50672E-5	66369.314273	5.835926E+16	0	0	13.835724	0.868339	0	0
37.515617	0	0	34.050532	7.402524	29.985843	7.402524	2.327243E+13	1.503977E-5	66490.364887	5.835267E+16	0	0	13.842146	0.859993	0	0
0	0	0	33.95976	7.459154	29.849535	7.459154	2.194398E+13	1.496143E-5	66838.508043	5.834644E+16	0	0	13.849304	0.851767	0	0
0	0	0	33.870409	7.512135	29.716674	7.512135	2.071029E+13	1.488649E-5	67174.994975	5.834066E+16	0	0	13.853771	0.843413	0	0
0	0	0	33.780961	7.562927	29.584712	7.562927	1.954461E+13	1.481952E-5	67478.570869	5.833519E+16	0	0	13.855981	0.835242	0	0
0	0	0	33.691856	7.609378	29.455373	7.609378	1.844855E+13	1.472752E-5	67900.084538	5.833005E+16	0	0	13.859873	0.827255	0	0
0	0	0	33.604678	7.653076	29.329636	7.653076	1.743562E+13	1.464693E-5	68273.707196	5.83253E+16	0	0	13.854631	0.819355	0	0
0	0	0	33.517091	7.694329	29.204632	7.694329	1.647387E+13	1.455783E-5	68691.557949	5.832079E+16	0	0	13.854017	0.811551	0	0
0	0	0	33.429848	7.73346	29.081066	7.73346	1.556857E+13	1.447082E-5	69104.577791	5.831654E+16	0	0	13.863919	0.803835	0	0
0	0	0	33.341984	7.770736	28.957678	7.770736	1.470704E+13	1.437994E-5	69541.336282	5.83125E+16	0	0	13.865026	0.796237	0	0
0	0	0	33.255753	7.806501	28.836911	7.806501	1.390785E+13	1.431161E-5	69873.324095	5.830875E+16	0	0	13.87025	0.7886	0	0
0	0	0	33.170666	7.83951	28.718912	7.83951	1.316178E+13	1.423274E-5	70260.560438	5.830526E+16	0	0	13.868668	0.78117	0	0
0	0	0	33.084942	7.870529	28.601183	7.870529	1.245056E+13	1.413942E-5	70724.280504	5.830192E+16	0	0	13.863918	0.773852	0	0
0	0	0	33.000312	7.899936	28.485542	7.899936	1.178609E+13	1.405352E-5	71156.5518	5.82988E+16	0	0	13.865693	0.766621	0	0
0	0	0	32.915993	7.927323	28.371314	7.927323	1.11593E+13	1.395549E-5	71656.398637	5.829586E+16	0	0	13.865651	0.759454	0	0
0	0	0	32.831821	7.953858	28.25765	7.953858	1.056682E+13	1.387038E-5	72096.089977	5.829309E+16	0	0	13.86138	0.752478	0	0
0	0	0	32.748955	7.978785	28.146347	7.978785	1.001424E+13	1.378784E-5	72527.69649	5.829049E+16	0	0	13.853863	0.745757	0	0
0	0	0	32.665877	8.002616	28.035342	8.002616	9.489238E+12	1.370577E-5	72961.956876	5.828803E+16	0	0	13.852762	0.739028	0	0
0	0	0	32.583714	8.024628	27.92638	8.024628	8.99707E+12	1.36115E-5	73467.28601	5.828572E+16	0	0	13.848252	0.732394	0	0
0	0	0	32.501142	8.046378	27.817014	8.046378	8.528153E+12	1.353676E-5	73872.936061	5.828352E+16	0	0	13.846913	0.725761	0	0
0	0	0	32.418081	8.066097	27.708183	8.066097	8.081093E+12	1.342589E-5	74482.935322	5.828143E+16	0	0	13.840681	0.719199	0	0
0	0	0	32.337322	8.084989	27.602468	8.084989	7.668896E+12	1.333755E-5	74976.311277	5.827949E+16	0	0	13.831721	0.712716	0	0
0	0	0	32.25578	8.103081	27.496237	8.103081	7.274013E+12	1.324458E-5	75502.572663	5.827764E+16	0	0	13.82463	0.70621	0	0
0	0	0	32.175642	8.120143	27.392198	8.120143	6.905739E+12	1.315639E-5	76008.694501	5.827592E+16	0	0	13.821663	0.699585	0	0
0	0	0	32.095978	8.136152	27.28928	8.136152	6.558114E+12	1.306173E-5	76559.563022	5.827428E+16	0	0	13.81143	0.69315	0	0
0	0	0	32.015857	8.151564	27.186123	8.151564	6.226133E+12	1.29677E-5	77114.67096	5.827273E+16	0	0	13.805187	0.686676	0	0
0	0	0	31.936307	8.166331	27.083968	8.166331	5.91314E+12	1.288028E-5	77638.07425	5.827126E+16	0	0	13.79125	0.680289	0	0
0	0	0	31.856251	8.180652	26.981434	8.180652	5.614031E+12	1.279754E-5	78140.005261	5.826986E+16	0	0	13.782542	0.674117	0	0
0	0	0	31.779968	8.193911	26.883919	8.193911	5.343103E+12	1.27281E-5	78566.300657	5.826859E+16	0	0	13.774223	0.667771	0	0
0	0	0	31.705515	8.206288	26.789039	8.206288	5.09128E+12	1.266009E-5	78988.396707	5.826741E+16	0	0	13.763352	0.661623	0	0
0	0	0	31.626276	8.218437	26.688631	8.218437	4.836289E+12	1.256693E-5	79573.953898	5.826621E+16	0	0	13.751664	0.655547	0	0
0	0	0	31.545632	8.230287	26.586711	8.230287	4.589881E+12	1.247392E-5	80167.254814	5.826505E+16	0	0	13.740667	0.649526	0	0
0	0	0	31.466882	8.240725	26.487832	8.240725	4.361378E+12	1.235218E-5	80957.374586	5.826398E+16	0	0	13.732104	0.643402	0	0
0	0	0	31.388639	8.251387	26.389377	8.251387	4.145609E+12	1.226896E-5	81506.495529	5.826297E+16	0	0	13.728319	0.637127	0	0
0	0	0	31.310919	8.2615	26.291835	8.2615	3.941846E+12	1.218561E-5	82064.013692	5.826201E+16	0	0	13.721957	0.630876	0	0
0	0	0	31.232791	8.270749	26.194305	8.270749	3.747104E+12	1.207552E-5	82812.139121	5.82611E+16	0	0	13.709528	0.624967	0	0
0	0	0	31.154646	8.279734	26.096887	8.279734	3.561942E+12	1.197276E-5	83522.940984	5.826023E+16	0	0	13.699469	0.619249	0	0
0	0	0	31.077154	8.288333	26.000443	8.288333	3.387362E+12	1.187502E-5	84210.367028	5.825941E+16	0	0	13.683842	0.613404	0	0
0	0	0	30.999467	8.296302	25.904128	8.296302	3.220928E+12	1.175963E-5	85036.689639	5.825863E+16	0	0	13.666868	0.607822	0	0
0	0	0	30.922302	8.304232	25.808426	8.304232	3.063707E+12	1.16669E-5	85712.544862	5.82579E+16	0	0	13.654956	0.602199	0	0
0	0	0	30.844092	8.311635	25.711792	8.311635	2.912183E+12	1.155401E-5	86550.061768	5.825719E+16	0	0	13.640969	0.596593	0	0
0	0	0	30.766698	8.319365	25.615893	8.319365	2.769619E+12	1.149048E-5	87028.568892	5.825652E+16	0	0	13.626239	0.590979	0	0
0	0	0	30.688439	8.325461	25.519963	8.325461	2.632554E+12	1.133011E-5	88260.374147	5.825587E+16	0	0	13.606279	0.585635	0	0
0	0	0	30.608807	8.33242	25.421859	8.33242	2.500044E+12	1.123947E-5	88972.176902	5.825525E+16	0	0	13.58744	0.580252	0	0
0	0	0	30.529552	8.338468	25.324743	8.338468	2.374782E+12	1.110664E-5	90036.233987	5.825467E+16	0	0	13.568086	0.57502	0	0
0	0	0	30.450149	8.344141	25.227668	8.344141	2.25558E+12	1.096359E-5	91211.039398	5.825411E+16	0	0	13.552497	0.569756	0	0
0	0	0	30.36993	8.35032	25.129294	8.35032	2.141226E+12	1.087303E-5	91970.68991	5.825357E+16	0	0	13.529764	0.564524	0	0
0	0	0	30.289563	8.355774	25.031182	8.355774	2.032474E+12	1.074485E-5	93067.869676	5.825306E+16	0	0	13.506822	0.559475	0	0
0	0	0	30.208756	8.360918	24.932727	8.360918	1.928693E+12	1.060719E-5	94275.641651	5.825257E+16	0	0	13.479315	0.554395	0	0
0	0	0	30.12607	8.365808	24.832202	8.365808	1.827982E+12	1.04539E-5	95658.124035	5.82521E+16	0	0	13.465647	0.54925	0	0
0	0	0	30.042241	8.370688	24.730318	8.370688	1.731245E+12	1.031069E-5	96986.758736	5.825165E+16	0	0	13.4381	0.544273	0	0
0	0	0	29.95784	8.375418	24.627838	8.375418	1.639019E+12	1.01696E-5	98332.314457	5.825121E+16	0	0	13.417429	0.539176	0	0
0	0	0	29.871789	8.37997	24.523511	8.37997	1.550045E+12	1.002078E-5	99792.615682	5.82508E+16	0	0	13.390486	0.534271	0	0
0	0	0	29.784366	8.384155	24.417784	8.384155	1.464597E+12	9.848009E-6	101543.365514	5.82504E+16	0	0	13.367438	0.529405	0	0
0	0	0	29.696877	8.388443	24.311897	8.388443	1.3838E+12	9.70343E-6	103056.339853	5.825002E+16	0	0	13.345021	0.524524	0	0
0	0	0	29.607004	8.391784	24.203794	8.391784	1.305439E+12	9.470065E-6	105595.899242	5.824965E+16	0	0	13.322388	0.519682	0	0
0	0	0	29.517981	8.39567	24.096327	8.39567	1.232193E+12	9.312741E-6	107379.76726	5.824931E+16	0	0	13.295823	0.514975	0	0
0	0	0	29.429006	8.399377	23.989018	8.399377	1.163094E+12	9.156049E-6	109217.409313	5.824898E+16	0	0	13.27146	0.510261	0	0
0	0	0	29.340521	8.402371	23.882737	8.402371	1.098219E+12	8.945702E-6	111785.521822	5.824868E+16	0	0	13.244402	0.505666	0	0
0	0	0	29.252134	8.405823	23.776262	8.405823	1.037027E+12	8.799876E-6	113637.960254	5.824839E+16	0	0	13.214068	0.501111	0	0
0	0	0	29.164891	8.408956	23.67133	8.408956	9.799717E+11	8.643111E-6	115699.085481	5.824812E+16	0	0	13.183209	0.496667	0	0
0	0	0	29.07541	8.41191	23.563865	8.41191	9.247118E+11	8.470195E-6	118061.032892	5.824786E+16	0	0	13.163235	0.492152	0	0
0	0	0	28.987726	8.414977	23.458434	8.414977	8.735853E+11	8.335501E-6	119968.800457	5.824763E+16	0	0	13.137843	0.487788	0	0
0	0	0	28.899927	8.417687	23.353092	8.417687	8.252242E+11	8.17521E-6	122321.01705	5.82474E+16	0	0	13.104932	0.483456	0	0
0	0	0	28.812814	8.420358	23.248574	8.420358	7.798871E+11	8.028776E-6	124551.992354	5.824719E+16	0	0	13.072186	0.4791	0	0
0	0	0	28.724313	8.42254	23.142732	8.42254	7.363771E+11	7.831604E-6	127687.762003	5.824698E+16	0	0	13.040967	0.474776	0	0
0	0	0	28.634963	8.425165	23.035587	8.425165	6.949115E+11	7.696663E-6	129926.432321	5.824679E+16	0	0	13.012354	0.470499	0	0
0	0	0	28.547099	8.427422	22.930429	8.427422	6.564133E+11	7.538878E-6	132645.733803	5.824661E+16	0	0	12.983206	0.466191	0	0
0	0	0	28.460035	8.430018	22.825982	8.430018	6.203698E+11	7.44096E-6	134391.266176	5.824644E+16	0	0	12.949679	0.462002	0	0
0	0	0	28.371485	8.432143	22.720086	8.432143	5.857402E+11	7.290423E-6	137166.245446	5.824628E+16	0	0	12.917209	0.457885	0	0
0	0	0	28.283686	8.434297	22.61505	8.434297	5.533133E+11	7.160252E-6	139659.895256	5.824612E+16	0	0	12.882234	0.453832	0	0
0	0	0	28.194875	8.436356	22.508874	8.436356	5.223382E+11	7.026212E-6	142324.19085	5.824598E+16	0	0	12.850658	0.449723	0	0
0	0	0	28.105672	8.438312	22.402297	8.438312	4.929717E+11	6.889505E-6	145148.31866	5.824584E+16	0	0	12.807653	0.445709	0	0
0	0	0	28.016387	8.440334	22.295573	8.440334	4.652315E+11	6.774522E-6	147611.893042	5.824571E+16	0	0	12.771254	0.441751	0	0
0	0	0	27.929715	8.441876	22.192251	8.441876	4.397972E+11	6.615809E-6	151153.102104	5.824559E+16	0	0	12.739925	0.437746	0	0
0	0	0	27.838127	8.443793	22.082865	8.443793	4.144295E+11	6.501401E-6	153813.006244	5.824547E+16	0	0	12.707501	0.433939	0	0
0	0	0	27.743941	8.445401	21.970618	8.445401	3.898675E+11	6.344064E-6	157627.658272	5.824536E+16	0	0	12.665077	0.430045	0	0
0	0	0	27.651471	8.447037	21.860369	8.447037	3.671696E+11	6.210283E-6	161023.255099	5.824525E+16	0	0	12.628686	0.426246	0	0
0	0	0	27.559213	8.448626	21.750397	8.448626	3.458406E+11	6.082467E-6	164406.966575	5.824515E+16	0	0	12.583524	0.422615	0	0
0	0	0	27.463753	8.450562	21.636401	8.450562	3.250749E+11	6.008795E-6	166422.719178	5.824505E+16	0	0	12.557834	0.418769	0	0
0	0	0	27.369976	8.451775	21.524882	8.451775	3.058896E+11	5.840779E-6	171210.040953	5.824496E+16	0	0	12.518962	0.415121	0	0
0	0	0	27.274239	8.453467	21.410714	8.453467	2.874708E+11	5.753957E-6	173793.45148	5.824488E+16	0	0	12.480866	0.411458	0	0
0	0	0	27.177864	8.454652	21.296139	8.454652	2.700495E+11	5.594289E-6	178753.725211	5.824479E+16	0	0	12.4455	0.407883	0	0
0	0	0	27.08118	8.455837	21.181192	8.455837	2.536328E+11	5.444597E-6	183668.320019	5.824472E+16	0	0	12.411573	0.404179	0	0
0	0	0	26.984234	8.456965	21.065973	8.456965	2.381737E+11	5.295494E-6	188839.795108	5.824465E+16	0	0	12.360771	0.400755	0	0
0	0	0	26.884821	8.458309	20.947685	8.458309	2.232993E+11	5.185599E-6	192841.737119	5.824458E+16	0	0	12.32002	0.397211	0	0
0	0	0	26.785637	8.459353	20.829873	8.459353	2.093848E+11	5.036399E-6	198554.582024	5.824451E+16	0	0	12.280076	0.393883	0	0
0	0	0	26.685849	8.460453	20.711303	8.460453	1.962605E+11	4.905662E-6	203846.08232	5.824445E+16	0	0	12.240971	0.390379	0	0
0	0	0	26.58557	8.461309	20.592324	8.461309	1.839003E+11	4.741225E-6	210915.966765	5.824439E+16	0	0	12.202441	0.387026	0	0
0	0	0	26.485047	8.462446	20.472851	8.462446	1.722911E+11	4.635605E-6	215721.555995	5.824434E+16	0	0	12.153852	0.38365	0	0
0	0	0	26.384099	8.463687	20.352799	8.463687	1.613703E+11	4.558574E-6	219366.830125	5.824428E+16	0	0	12.115103	0.380146	0	0
0	0	0	26.28204	8.46457	20.231685	8.46457	1.510329E+11	4.423901E-6	226044.832253	5.824424E+16	0	0	12.071008	0.376857	0	0
0	0	0	26.179295	8.465191	20.109946	8.465191	1.412947E+11	4.248737E-6	235364.079152	5.824419E+16	0	0	12.017727	0.373624	0	0
0	0	0	26.074688	8.466554	19.985472	8.466554	1.320249E+11	4.216098E-6	237186.138743	5.824415E+16	0	0	11.974829	0.370303	0	0
0	0	0	25.9708	8.467127	19.86241	8.467127	1.234208E+11	4.046973E-6	247098.293583	5.824411E+16	0	0	11.93397	0.367078	0	0
0	0	0	25.86469	8.468292	19.736294	8.468292	1.152112E+11	3.995273E-6	250295.807806	5.824407E+16	0	0	11.891978	0.3639	0	0
0	0	0	25.757747	8.46881	19.60966	8.46881	1.074896E+11	3.825279E-6	261418.808311	5.824403E+16	0	0	11.840742	0.360723	0	0
0	0	0	25.650478	8.469702	19.482364	8.469702	1.002643E+11	3.737347E-6	267569.510293	5.8244E+16	0	0	11.796434	0.357649	0	0
0	0	0	25.543094	8.470248	19.355183	8.470248	9.35177E+10	3.589848E-6	278563.3377	5.824397E+16	0	0	11.747695	0.354615	0	0
0	0	0	25.434436	8.470972	19.226365	8.470972	8.715301E+10	3.48341E-6	287075.061627	5.824394E+16	0	0	11.704984	0.351589	0	0
0	0	0	25.324373	8.471611	19.095947	8.471611	8.11475E+10	3.365893E-6	297097.966179	5.824391E+16	0	0	11.653964	0.348634	0	0
0	0	0	25.213641	8.472081	18.96486	8.472081	7.5523E+10	3.222125E-6	310354.175489	5.824388E+16	0	0	11.604039	0.345624	0	0
0	0	0	25.102304	8.472983	18.832737	8.472983	7.026079E+10	3.171509E-6	315307.327028	5.824386E+16	0	0	11.571414	0.342741	0	0
0	0	0	24.990363	8.473143	18.700447	8.473143	6.533962E+10	2.980079E-6	335561.620318	5.824383E+16	0	0	11.518011	0.339699	0	0
0	0	0	24.87522	8.473913	18.563922	8.473913	6.063706E+10	2.911368E-6	343481.093021	5.824381E+16	0	0	11.464017	0.336816	0	0
0	0	0	24.760698	8.474355	18.428371	8.474355	5.629561E+10	2.787166E-6	358787.393743	5.824379E+16	0	0	11.411215	0.333854	0	0
0	0	0	24.645163	8.475022	18.291454	8.475022	5.223067E+10	2.71362E-6	368511.487616	5.824377E+16	0	0	11.360271	0.331083	0	0
0	0	0	24.528321	8.475417	18.153195	8.475417	4.841819E+10	2.591278E-6	385909.973609	5.824376E+16	0	0	11.304874	0.32824	0	0
0	0	0	24.409781	8.476112	18.012701	8.476112	4.483455E+10	2.533813E-6	394662.096488	5.824374E+16	0	0	11.251575	0.325405	0	0
0	0	0	24.290587	8.476348	17.871781	8.476348	4.149857E+10	2.390545E-6	418314.71183	5.824372E+16	0	0	11.201538	0.322673	0	0
0	0	0	24.168698	8.476799	17.727513	8.476799	3.83437E+10	2.293725E-6	435972.100724	5.824371E+16	0	0	11.147569	0.320029	0	0
0	0	0	24.046074	8.477653	17.582067	8.477653	3.541179E+10	2.284794E-6	437676.286717	5.824369E+16	0	0	11.09079	0.317314	0	0
0	0	0	23.92046	8.478029	17.433453	8.478029	3.26407E+10	2.18139E-6	458423.21765	5.824368E+16	0	0	11.034711	0.314702	0	0
0	0	0	23.795076	8.478105	17.285338	8.478105	3.009093E+10	2.025543E-6	493694.67772	5.824367E+16	0	0	10.995497	0.311978	0	0
0	0	0	23.668548	8.478894	17.135323	8.478894	2.771977E+10	2.01869E-6	495370.674162	5.824366E+16	0	0	10.93788	0.30947	0	0
0	0	0	23.539978	8.479072	16.983364	8.479072	2.550165E+10	1.892241E-6	528474.022705	5.824365E+16	0	0	10.871141	0.306953	0	0
0	0	0	23.409301	8.479495	16.828726	8.479495	2.342898E+10	1.819786E-6	549515.140705	5.824364E+16	0	0	10.823283	0.304357	0	0
0	0	0	23.277186	8.480293	16.672096	8.480293	2.15047E+10	1.832193E-6	545793.930453	5.824363E+16	0	0	10.769467	0.301913	0	0
0	0	0	23.142474	8.480181	16.513106	8.480181	1.970525E+10	1.656278E-6	603763.408673	5.824362E+16	0	0	10.709567	0.299404	0	0
0	0	0	23.004267	8.480801	16.349415	8.480801	1.801547E+10	1.635679E-6	611366.749595	5.824361E+16	0	0	10.650757	0.296951	0	0
0	0	0	22.866027	8.481468	16.185644	8.481468	1.647024E+10	1.63656E-6	611037.670807	5.824361E+16	0	0	10.589758	0.294554	0	0
0	0	0	22.724977	8.481355	16.019168	8.481355	1.503013E+10	1.470061E-6	680243.759713	5.82436E+16	0	0	10.528369	0.29207	0	0
