Vload_(V)	ILoad_(A)	RsLoad_(ohm)	SunsVoc_Voltage_(V)	SunsVoc_Current_(A)	Model_Voltage_(V)	Model_Current_(A)	Carrier_Density_(cm-3)	Lifetime_(s)	Inverse_Lifetime_(s-1)	(Carrier_Density+Doping)/qWni^2_(cm^2/C)	Carrier_Density_at_Vmp_(cm-3)	Lifetime_at_Vmp_(s)	Efficiency_(%)	Intensity_(suns)	Dark_IV_Voltage_(V)	Dark_IV_Current_(A)
5.094162	8.507685	0	37.527939	-0.379909	37.713625	-0.379909	2.18649E+14	1.726615E-5	57916.718032	5.926896E+16	9.856841E+12	1.323611E-5	13.662395	1.157896	0	0
5.149547	8.508549	-0.53408	37.409839	0.225887	37.299284	0.225887	2.027784E+14	1.71842E-5	58192.936511	5.919453E+16	0	0	13.622482	1.155539	0	0
5.155625	8.510721	-0.627972	37.29125	0.797906	36.900204	0.797906	1.879843E+14	1.711243E-5	58437.002654	5.912515E+16	0	0	13.654805	1.150187	0	0
5.3398	8.509139	-0.664504	37.170488	1.342821	36.511476	1.342821	1.740129E+14	1.704533E-5	58667.028084	5.905963E+16	0	0	13.67271	1.147081	0	0
6.657517	8.502473	1.884962	37.050151	1.8376	36.14708	1.8376	1.611108E+14	1.695217E-5	58989.461994	5.899912E+16	0	0	13.648752	1.144254	0	0
9.357276	8.498096	1.778635	36.931643	2.290569	35.804444	2.290569	1.493292E+14	1.68573E-5	59321.442913	5.894386E+16	0	0	13.65812	1.13915	0	0
12.145492	8.48835	1.675563	36.815144	2.709445	35.480047	2.709445	1.385785E+14	1.677381E-5	59616.702969	5.889344E+16	0	0	13.659678	1.130454	0	0
14.861144	8.479566	1.455917	36.701014	3.095711	35.173603	3.095711	1.287898E+14	1.670159E-5	59874.525568	5.884754E+16	0	0	13.675436	1.122052	0	0
17.572415	8.466706	1.231491	36.587668	3.451718	34.882413	3.451718	1.197463E+14	1.662225E-5	60160.289923	5.880512E+16	0	0	13.686157	1.11463	0	0
20.279309	8.456762	0.963931	36.476462	3.776444	34.608431	3.776444	1.114856E+14	1.653772E-5	60467.801855	5.876638E+16	0	0	13.683132	1.105608	0	0
22.980445	8.446895	0.687334	36.365697	4.078004	34.345968	4.078004	1.038195E+14	1.644897E-5	60794.052251	5.873043E+16	0	0	13.71119	1.095048	0	0
23.705336	8.442645	0.617504	36.255569	4.357441	34.094755	4.357441	9.671631E+13	1.635529E-5	61142.293204	5.869712E+16	0	0	13.732971	1.084345	0	0
24.425212	8.428983	0.577679	36.146257	4.618771	33.853025	4.618771	9.014302E+13	1.626806E-5	61470.115576	5.866629E+16	0	0	13.752275	1.074701	0	0
25.14472	8.412129	0.537649	36.036488	4.859831	33.620581	4.859831	8.398877E+13	1.615905E-5	61884.810765	5.863742E+16	0	0	13.771658	1.065018	0	0
25.862504	8.381734	0.515449	35.928598	5.084989	33.397689	5.084989	7.834691E+13	1.606518E-5	62246.416193	5.861096E+16	0	0	13.77719	1.054538	0	0
26.572779	8.334312	0.503501	35.820741	5.29823	33.180496	5.29823	7.308338E+13	1.598157E-5	62572.069032	5.858628E+16	0	0	13.792734	1.043771	0	0
27.28093	8.249579	0.509248	35.715039	5.495113	32.973429	5.495113	6.826646E+13	1.590384E-5	62877.880382	5.856369E+16	0	0	13.816062	1.033339	0	0
27.925613	8.139329	0.513637	35.609909	5.677039	32.774191	5.677039	6.378895E+13	1.581583E-5	63227.786242	5.854269E+16	0	0	13.827314	1.023616	0	0
28.593885	7.986415	0.515732	35.506054	5.844523	32.583277	5.844523	5.965278E+13	1.572046E-5	63611.363678	5.852329E+16	0	0	13.84789	1.01351	0	0
29.27186	7.78749	0.513108	35.404142	6.000537	32.399919	6.000537	5.585368E+13	1.563522E-5	63958.154676	5.850547E+16	0	0	13.870421	1.003197	0	0
29.931867	7.538061	0.509785	35.302181	6.146491	32.221376	6.146491	5.229388E+13	1.554359E-5	64335.210075	5.848878E+16	0	0	13.886431	0.993418	0	0
30.590076	7.232963	0.504435	35.197934	6.283761	32.044655	6.283761	4.888778E+13	1.54281E-5	64816.793348	5.847281E+16	0	0	13.903477	0.984109	0	0
31.246372	6.864602	0.498502	35.09594	6.412722	31.874284	6.412722	4.576936E+13	1.533312E-5	65218.283532	5.845818E+16	0	0	13.910591	0.974808	0	0
31.897959	6.437398	0.491456	34.995825	6.532237	31.710464	6.532237	4.290125E+13	1.524181E-5	65609.01583	5.844473E+16	0	0	13.916785	0.965435	0	0
32.553808	5.950683	0.482049	34.897033	6.64331	31.552133	6.64331	4.02467E+13	1.515058E-5	66004.085193	5.843228E+16	0	0	13.928806	0.955791	0	0
33.188073	5.420225	0.471032	34.798454	6.748063	31.397085	6.748063	3.77611E+13	1.506112E-5	66396.102567	5.842062E+16	0	0	13.938049	0.946386	0	0
33.813569	4.798995	0.465668	34.701785	6.845568	31.247563	6.845568	3.54724E+13	1.497825E-5	66763.461181	5.840989E+16	0	0	13.951694	0.937164	0	0
34.43278	4.120075	0.459739	34.605133	6.936888	31.101077	6.936888	3.33224E+13	1.488841E-5	67166.356356	5.839981E+16	0	0	13.964495	0.927751	0	0
35.027994	3.405205	0.461353	34.509788	7.02215	30.958913	7.02215	3.132886E+13	1.480109E-5	67562.57808	5.839046E+16	0	0	13.975379	0.918466	0	0
35.60768	2.659251	0.466223	34.414884	7.10208	30.819816	7.10208	2.946272E+13	1.471098E-5	67976.412789	5.83817E+16	0	0	13.988812	0.909228	0	0
36.15354	1.915842	0.472696	34.320192	7.177046	30.68337	7.177046	2.77113E+13	1.4616E-5	68418.161656	5.837349E+16	0	0	13.994734	0.900293	0	0
36.622224	1.250933	0.476302	34.225206	7.247889	30.54863	7.247889	2.605881E+13	1.451732E-5	68883.253632	5.836574E+16	0	0	14.00839	0.890944	0	0
36.989748	0.709446	0.474282	34.131854	7.314267	30.417782	7.314267	2.45306E+13	1.442606E-5	69318.975408	5.835857E+16	0	0	14.014599	0.881858	0	0
28.603524	7.983709	0.515869	34.038713	7.378163	30.288348	7.378163	2.309503E+13	1.435013E-5	69685.756435	5.835184E+16	0	0	14.023406	0.872939	0	0
37.4553	0	0	33.946063	7.441548	30.159618	7.441548	2.175022E+13	1.4318E-5	69842.135391	5.834553E+16	0	0	14.035692	0.864203	0	0
0	0	0	33.854573	7.497473	30.03583	7.497473	2.049897E+13	1.424137E-5	70217.958642	5.833967E+16	0	0	14.046966	0.855778	0	0
0	0	0	33.764292	7.550679	29.914631	7.550679	1.933474E+13	1.417934E-5	70525.163609	5.833421E+16	0	0	14.056878	0.847209	0	0
0	0	0	33.673438	7.60116	29.794173	7.60116	1.822977E+13	1.411346E-5	70854.322386	5.832902E+16	0	0	14.068538	0.838815	0	0
0	0	0	33.582601	7.647167	29.675966	7.647167	1.718805E+13	1.40184E-5	71334.807478	5.832414E+16	0	0	14.071213	0.830621	0	0
0	0	0	33.493937	7.690416	29.561388	7.690416	1.62286E+13	1.393632E-5	71754.971619	5.831964E+16	0	0	14.072583	0.822482	0	0
0	0	0	33.405975	7.73143	29.448645	7.73143	1.532962E+13	1.385987E-5	72150.76433	5.831542E+16	0	0	14.071728	0.814399	0	0
0	0	0	33.317441	7.770139	29.336445	7.770139	1.447502E+13	1.377406E-5	72600.231298	5.831141E+16	0	0	14.077158	0.806292	0	0
0	0	0	33.228859	7.807163	29.22502	7.807163	1.366757E+13	1.36931E-5	73029.485165	5.830763E+16	0	0	14.081082	0.798409	0	0
0	0	0	33.141893	7.842455	29.116135	7.842455	1.291865E+13	1.362943E-5	73370.661048	5.830411E+16	0	0	14.090537	0.790636	0	0
0	0	0	33.056152	7.874916	29.00995	7.874916	1.222042E+13	1.355418E-5	73777.996071	5.830084E+16	0	0	14.107567	0.782975	0	0
0	0	0	32.971294	7.904975	28.905891	7.904975	1.156651E+13	1.346871E-5	74246.156792	5.829777E+16	0	0	14.137873	0.775426	0	0
0	0	0	32.886403	7.934048	28.802276	7.934048	1.094733E+13	1.339378E-5	74661.533466	5.829487E+16	0	0	14.132368	0.767821	0	0
0	0	0	32.801969	7.961028	28.700189	7.961028	1.036433E+13	1.330633E-5	75152.179467	5.829214E+16	0	0	14.123419	0.76059	0	0
0	0	0	32.718075	7.98699	28.599165	7.98699	9.815789E+12	1.323043E-5	75583.330435	5.828956E+16	0	0	14.119598	0.75316	0	0
0	0	0	32.634784	8.011472	28.499513	8.011472	9.2999E+12	1.315352E-5	76025.251662	5.828714E+16	0	0	14.112495	0.746033	0	0
0	0	0	32.552556	8.034103	28.401903	8.034103	8.817172E+12	1.306671E-5	76530.36699	5.828488E+16	0	0	14.112527	0.738945	0	0
0	0	0	32.471079	8.056378	28.305241	8.056378	8.363557E+12	1.300621E-5	76886.370161	5.828275E+16	0	0	14.112713	0.731802	0	0
0	0	0	32.389193	8.07674	28.209123	8.07674	7.931164E+12	1.291657E-5	77419.950581	5.828072E+16	0	0	14.115623	0.724802	0	0
0	0	0	32.306458	8.095897	28.112722	8.095897	7.516972E+12	1.281154E-5	78054.614749	5.827878E+16	0	0	14.117895	0.717914	0	0
0	0	0	32.225732	8.114894	28.018487	8.114894	7.133684E+12	1.27463E-5	78454.170157	5.827698E+16	0	0	14.11021	0.711161	0	0
0	0	0	32.145252	8.132346	27.925292	8.132346	6.771004E+12	1.266082E-5	78983.808527	5.827528E+16	0	0	14.100815	0.704392	0	0
0	0	0	32.065375	8.149153	27.833049	8.149153	6.429273E+12	1.258538E-5	79457.288841	5.827368E+16	0	0	14.091565	0.697838	0	0
0	0	0	31.986626	8.164469	27.742745	8.164469	6.109243E+12	1.249257E-5	80047.560635	5.827218E+16	0	0	14.078094	0.691372	0	0
0	0	0	31.907468	8.179745	27.65202	8.179745	5.803599E+12	1.242041E-5	80512.667808	5.827075E+16	0	0	14.067067	0.684985	0	0
0	0	0	31.827951	8.19434	27.561261	8.19434	5.511955E+12	1.234567E-5	81000.061608	5.826938E+16	0	0	14.065998	0.678431	0	0
0	0	0	31.749855	8.208104	27.472408	8.208104	5.239787E+12	1.227528E-5	81464.519474	5.82681E+16	0	0	14.059344	0.672076	0	0
0	0	0	31.676415	8.220928	27.388903	8.220928	4.996111E+12	1.222787E-5	81780.379588	5.826696E+16	0	0	14.052691	0.665681	0	0
0	0	0	31.600704	8.233217	27.303293	8.233217	4.756755E+12	1.216328E-5	82214.653172	5.826584E+16	0	0	14.045025	0.65943	0	0
0	0	0	31.522771	8.244844	27.215693	8.244844	4.522342E+12	1.207541E-5	82812.921349	5.826474E+16	0	0	14.034807	0.653274	0	0
0	0	0	31.442683	8.256175	27.125981	8.256175	4.29347E+12	1.19808E-5	83466.906943	5.826366E+16	0	0	14.020466	0.647007	0	0
0	0	0	31.364832	8.267227	27.038747	8.267227	4.082097E+12	1.191451E-5	83931.269306	5.826267E+16	0	0	14.010875	0.64074	0	0
0	0	0	31.287553	8.277102	26.952718	8.277102	3.882566E+12	1.181745E-5	84620.621097	5.826174E+16	0	0	14.004367	0.634234	0	0
0	0	0	31.210665	8.287087	26.867034	8.287087	3.693724E+12	1.175153E-5	85095.310474	5.826085E+16	0	0	13.992791	0.628157	0	0
0	0	0	31.133484	8.295743	26.781729	8.295743	3.513394E+12	1.163437E-5	85952.221922	5.826001E+16	0	0	13.98682	0.622225	0	0
0	0	0	31.056858	8.304587	26.696901	8.304587	3.343069E+12	1.155237E-5	86562.317308	5.825921E+16	0	0	13.979818	0.616364	0	0
0	0	0	30.980559	8.313156	26.61255	8.313156	3.181674E+12	1.147899E-5	87115.650403	5.825845E+16	0	0	13.974578	0.610534	0	0
0	0	0	30.903509	8.321264	26.527649	8.321264	3.026593E+12	1.13944E-5	87762.396014	5.825772E+16	0	0	13.956477	0.605008	0	0
0	0	0	30.826948	8.328976	26.443462	8.328976	2.879985E+12	1.131036E-5	88414.545692	5.825703E+16	0	0	13.939563	0.599505	0	0
0	0	0	30.751025	8.336688	26.359935	8.336688	2.741609E+12	1.12525E-5	88869.153128	5.825639E+16	0	0	13.924876	0.593859	0	0
0	0	0	30.675069	8.343466	26.27686	8.343466	2.609825E+12	1.11537E-5	89656.321341	5.825577E+16	0	0	13.91321	0.588268	0	0
0	0	0	30.599407	8.350374	26.194017	8.350374	2.484848E+12	1.108595E-5	90204.232631	5.825518E+16	0	0	13.89663	0.582965	0	0
0	0	0	30.521736	8.356681	26.109383	8.356681	2.362774E+12	1.098163E-5	91061.154301	5.825461E+16	0	0	13.879921	0.577637	0	0
0	0	0	30.445094	8.362489	26.026085	8.362489	2.248196E+12	1.086707E-5	92021.165685	5.825407E+16	0	0	13.868614	0.572381	0	0
0	0	0	30.370101	8.368927	25.944176	8.368927	2.141464E+12	1.083144E-5	92323.850615	5.825357E+16	0	0	13.854305	0.567181	0	0
0	0	0	30.293688	8.374273	25.861352	8.374273	2.037919E+12	1.072072E-5	93277.302863	5.825309E+16	0	0	13.833019	0.562092	0	0
0	0	0	30.217748	8.379401	25.779134	8.379401	1.939975E+12	1.061345E-5	94220.110892	5.825263E+16	0	0	13.802733	0.557139	0	0
0	0	0	30.142135	8.38484	25.697089	8.38484	1.847129E+12	1.055286E-5	94760.999829	5.825219E+16	0	0	13.784435	0.552082	0	0
0	0	0	30.066457	8.389779	25.615237	8.389779	1.758652E+12	1.046826E-5	95526.863788	5.825178E+16	0	0	13.761563	0.547034	0	0
0	0	0	29.989896	8.394218	25.532722	8.394218	1.673454E+12	1.03509E-5	96609.919927	5.825138E+16	0	0	13.740887	0.542064	0	0
0	0	0	29.913891	8.399044	25.450579	8.399044	1.592958E+12	1.029066E-5	97175.531001	5.8251E+16	0	0	13.725711	0.537071	0	0
0	0	0	29.837756	8.403361	25.368566	8.403361	1.516204E+12	1.020016E-5	98037.673891	5.825064E+16	0	0	13.705328	0.532325	0	0
0	0	0	29.762045	8.40781	25.286924	8.40781	1.443545E+12	1.01439E-5	98581.442566	5.82503E+16	0	0	13.688101	0.527459	0	0
0	0	0	29.685762	8.411684	25.204986	8.411684	1.373859E+12	1.004377E-5	99564.25245	5.824997E+16	0	0	13.667856	0.522809	0	0
0	0	0	29.609822	8.415218	25.123584	8.415218	1.307827E+12	9.926498E-6	100740.46575	5.824966E+16	0	0	13.639085	0.518158	0	0
0	0	0	29.532804	8.418913	25.040965	8.418913	1.244098E+12	9.835799E-6	101669.425798	5.824936E+16	0	0	13.615571	0.513348	0	0
0	0	0	29.455819	8.422532	24.958418	8.422532	1.1835E+12	9.754398E-6	102517.863505	5.824908E+16	0	0	13.584888	0.508809	0	0
0	0	0	29.379602	8.425426	24.877058	8.425426	1.126413E+12	9.610568E-6	104052.124994	5.824881E+16	0	0	13.562213	0.504214	0	0
0	0	0	29.303319	8.4288	24.795371	8.4288	1.072035E+12	9.537829E-6	104845.664692	5.824856E+16	0	0	13.53851	0.499563	0	0
0	0	0	29.226334	8.43145	24.713334	8.43145	1.019817E+12	9.388548E-6	106512.738757	5.824831E+16	0	0	13.514054	0.495096	0	0
0	0	0	29.149953	8.434757	24.631575	8.434757	9.705222E+11	9.339918E-6	107067.322689	5.824808E+16	0	0	13.492803	0.490652	0	0
0	0	0	29.07385	8.437584	24.550361	8.437584	9.237766E+11	9.248604E-6	108124.421993	5.824786E+16	0	0	13.459553	0.486368	0	0
0	0	0	28.995444	8.440383	24.466748	8.440383	8.779698E+11	9.15556E-6	109223.249681	5.824765E+16	0	0	13.42994	0.482028	0	0
0	0	0	28.918459	8.442758	24.384848	8.442758	8.352038E+11	9.028199E-6	110764.056822	5.824745E+16	0	0	13.402868	0.477783	0	0
0	0	0	28.841572	8.445124	24.303054	8.445124	7.945712E+11	8.913791E-6	112185.718302	5.824725E+16	0	0	13.371725	0.473379	0	0
0	0	0	28.763067	8.447424	24.2196	8.447424	7.551228E+11	8.794493E-6	113707.517147	5.824707E+16	0	0	13.345076	0.469087	0	0
0	0	0	28.685559	8.449901	24.137092	8.449901	7.180968E+11	8.721896E-6	114653.974466	5.82469E+16	0	0	13.322715	0.464842	0	0
0	0	0	28.606859	8.452351	24.053347	8.452351	6.823582E+11	8.654764E-6	115543.297979	5.824673E+16	0	0	13.294879	0.460566	0	0
0	0	0	28.526607	8.454453	23.968163	8.454453	6.477458E+11	8.540132E-6	117094.214122	5.824657E+16	0	0	13.270997	0.456521	0	0
0	0	0	28.448299	8.456639	23.884967	8.456639	6.156648E+11	8.464809E-6	118136.153563	5.824642E+16	0	0	13.241936	0.452579	0	0
0	0	0	28.36986	8.458383	23.801872	8.458383	5.851231E+11	8.329465E-6	120055.735838	5.824627E+16	0	0	13.202844	0.448597	0	0
0	0	0	28.289771	8.460418	23.716889	8.460418	5.555015E+11	8.248296E-6	121237.161671	5.824613E+16	0	0	13.16768	0.444735	0	0
0	0	0	28.211104	8.462143	23.633561	8.462143	5.278659E+11	8.13475E-6	122929.410753	5.8246E+16	0	0	13.14105	0.440761	0	0
0	0	0	28.13144	8.463849	23.549198	8.463849	5.012809E+11	8.025618E-6	124600.996352	5.824588E+16	0	0	13.10518	0.436875	0	0
0	0	0	28.050992	8.465244	23.464181	8.465244	4.757928E+11	7.867966E-6	127097.659336	5.824576E+16	0	0	13.073138	0.4331	0	0
0	0	0	27.969351	8.467138	23.377643	8.467138	4.512514E+11	7.810694E-6	128029.602821	5.824564E+16	0	0	13.042841	0.42923	0	0
0	0	0	27.891435	8.468843	23.295106	8.468843	4.290109E+11	7.751739E-6	129003.310087	5.824554E+16	0	0	13.010012	0.425344	0	0
0	0	0	27.811444	8.470642	23.210344	8.470642	4.073181E+11	7.717192E-6	129580.812878	5.824544E+16	0	0	12.973011	0.421657	0	0
0	0	0	27.728431	8.472356	23.122462	8.472356	3.859649E+11	7.667414E-6	130422.062603	5.824534E+16	0	0	12.934454	0.417954	0	0
0	0	0	27.644128	8.473327	23.03363	8.473327	3.65425E+11	7.464542E-6	133966.683253	5.824524E+16	0	0	12.89286	0.414203	0	0
0	0	0	27.561018	8.474938	22.945698	8.474938	3.462458E+11	7.420723E-6	134757.754943	5.824515E+16	0	0	12.858395	0.410627	0	0
0	0	0	27.477433	8.475881	22.857633	8.475881	3.279725E+11	7.237474E-6	138169.746368	5.824507E+16	0	0	12.831771	0.40698	0	0
0	0	0	27.393114	8.477002	22.768699	8.477002	3.105154E+11	7.102684E-6	140791.840018	5.824498E+16	0	0	12.7939	0.40346	0	0
0	0	0	27.308778	8.478302	22.67965	8.478302	2.939843E+11	7.022067E-6	142408.216099	5.824491E+16	0	0	12.767487	0.399876	0	0
0	0	0	27.223397	8.479273	22.589684	8.479273	2.781447E+11	6.870704E-6	145545.495298	5.824483E+16	0	0	12.726809	0.396365	0	0
0	0	0	27.135517	8.480432	22.496996	8.480432	2.627321E+11	6.765948E-6	147798.939329	5.824476E+16	0	0	12.678046	0.39294	0	0
0	0	0	27.049646	8.481233	22.406608	8.481233	2.484973E+11	6.593196E-6	151671.503041	5.824469E+16	0	0	12.633313	0.389627	0	0
0	0	0	26.961912	8.482373	22.314083	8.482373	2.347499E+11	6.508927E-6	153635.156823	5.824463E+16	0	0	12.599442	0.386131	0	0
0	0	0	26.873199	8.483418	22.220582	8.483418	2.216221E+11	6.4097E-6	156013.537265	5.824457E+16	0	0	12.564373	0.382739	0	0
0	0	0	26.782444	8.484558	22.124889	8.484558	2.089515E+11	6.341072E-6	157702.030657	5.824451E+16	0	0	12.528574	0.379442	0	0
0	0	0	26.691345	8.485482	22.028955	8.485482	1.969615E+11	6.225771E-6	160622.667108	5.824445E+16	0	0	12.494482	0.376241	0	0
0	0	0	26.599659	8.486442	21.932382	8.486442	1.855886E+11	6.131661E-6	163087.936395	5.82444E+16	0	0	12.44822	0.372984	0	0
0	0	0	26.507221	8.487178	21.835147	8.487178	1.747873E+11	5.98179E-6	167174.044808	5.824435E+16	0	0	12.404399	0.369838	0	0
0	0	0	26.41364	8.487969	21.736681	8.487969	1.644925E+11	5.855444E-6	170781.243938	5.82443E+16	0	0	12.360669	0.366422	0	0
0	0	0	26.320206	8.488911	21.638286	8.488911	1.548188E+11	5.787587E-6	172783.586991	5.824425E+16	0	0	12.314395	0.363244	0	0
0	0	0	26.224126	8.489749	21.537175	8.489749	1.454641E+11	5.692071E-6	175682.967677	5.824421E+16	0	0	12.279702	0.360043	0	0
0	0	0	26.127458	8.490305	21.435603	8.490305	1.366225E+11	5.517126E-6	181253.778672	5.824417E+16	0	0	12.250803	0.35689	0	0
0	0	0	26.030005	8.491257	21.332991	8.491257	1.28253E+11	5.47903E-6	182514.046369	5.824413E+16	0	0	12.20133	0.353848	0	0
0	0	0	25.930037	8.491521	21.228122	8.491521	1.202E+11	5.218944E-6	191609.63536	5.824409E+16	0	0	12.163912	0.350702	0	0
0	0	0	25.829693	8.492152	21.122657	8.492152	1.126252E+11	5.088772E-6	196511.06203	5.824406E+16	0	0	12.116536	0.347692	0	0
0	0	0	25.726622	8.492736	21.014359	8.492736	1.053411E+11	4.945659E-6	202197.522562	5.824402E+16	0	0	12.056807	0.344705	0	0
0	0	0	25.623697	8.493264	20.906246	8.493264	9.853752E+10	4.795511E-6	208528.33001	5.824399E+16	0	0	12.023113	0.341552	0	0
0	0	0	25.519188	8.493744	20.796499	8.493744	9.207868E+10	4.635671E-6	215718.505361	5.824396E+16	0	0	11.979347	0.33851	0	0
0	0	0	25.412801	8.494526	20.684615	8.494526	8.59384E+10	4.583542E-6	218171.866904	5.824393E+16	0	0	11.932789	0.335627	0	0
0	0	0	25.305237	8.494781	20.571793	8.494781	8.014642E+10	4.358997E-6	229410.577065	5.82439E+16	0	0	11.894459	0.332617	0	0
0	0	0	25.195452	8.495525	20.456369	8.495525	7.463716E+10	4.307722E-6	232141.231943	5.824388E+16	0	0	11.834302	0.329782	0	0
0	0	0	25.085161	8.496005	20.340562	8.496005	6.948378E+10	4.175263E-6	239505.857006	5.824385E+16	0	0	11.771841	0.326931	0	0
0	0	0	24.97268	8.496401	20.222508	8.496401	6.459443E+10	4.017589E-6	248905.506921	5.824383E+16	0	0	11.714886	0.324128	0	0
0	0	0	24.857815	8.496336	20.102214	8.496336	5.995631E+10	3.707637E-6	269713.600652	5.824381E+16	0	0	11.669167	0.321261	0	0
0	0	0	24.74001	8.496976	19.978444	8.496976	5.554517E+10	3.640258E-6	274705.769553	5.824379E+16	0	0	11.627612	0.318577	0	0
0	0	0	24.622221	8.497616	19.854691	8.497616	5.145912E+10	3.58696E-6	278787.590157	5.824377E+16	0	0	11.584558	0.315806	0	0
0	0	0	24.502112	8.498313	19.728475	8.498313	4.760197E+10	3.564798E-6	280520.800411	5.824375E+16	0	0	11.531026	0.313178	0	0
0	0	0	24.379537	8.498408	19.600012	8.498408	4.396353E+10	3.325869E-6	300673.284776	5.824373E+16	0	0	11.474498	0.310518	0	0
0	0	0	24.254381	8.498907	19.468618	8.498907	4.053527E+10	3.240879E-6	308558.226463	5.824372E+16	0	0	11.421473	0.307811	0	0
0	0	0	24.127216	8.499011	19.335342	8.499011	3.732567E+10	3.020002E-6	331125.623915	5.82437E+16	0	0	11.368447	0.305238	0	0
0	0	0	23.995837	8.499566	19.197395	8.499566	3.427637E+10	2.96306E-6	337488.891026	5.824369E+16	0	0	11.327369	0.302666	0	0
0	0	0	23.860864	8.500122	19.055683	8.500122	3.140289E+10	2.914068E-6	343162.922821	5.824368E+16	0	0	11.279054	0.300078	0	0
0	0	0	23.726135	8.500122	18.914541	8.500122	2.877488E+10	2.670328E-6	374485.773089	5.824366E+16	0	0	11.22133	0.297641	0	0
0	0	0	23.587895	8.500471	18.769523	8.500471	2.630679E+10	2.559222E-6	390743.740595	5.824365E+16	0	0	11.150487	0.295181	0	0
0	0	0	23.44732	8.501036	18.621934	8.501036	2.401399E+10	2.534639E-6	394533.460335	5.824364E+16	0	0	11.095489	0.29264	0	0
0	0	0	23.302497	8.501337	18.470045	8.501337	2.18607E+10	2.416921E-6	413749.631638	5.824363E+16	0	0	11.051525	0.290172	0	0
