Vload_(V)	ILoad_(A)	RsLoad_(ohm)	SunsVoc_Voltage_(V)	SunsVoc_Current_(A)	Model_Voltage_(V)	Model_Current_(A)	Carrier_Density_(cm-3)	Lifetime_(s)	Inverse_Lifetime_(s-1)	(Carrier_Density+Doping)/qWni^2_(cm^2/C)	Carrier_Density_at_Vmp_(cm-3)	Lifetime_at_Vmp_(s)	Efficiency_(%)	Intensity_(suns)	Dark_IV_Voltage_(V)	Dark_IV_Current_(A)
4.631968	8.535238	0	37.570592	-0.505091	37.785239	-0.505091	2.246762E+14	1.744234E-5	57331.661319	5.929723E+16	1.268427E+13	1.333456E-5	13.494717	1.147565	0	0
4.713363	8.540353	-0.558129	37.446302	0.132904	37.389324	0.132904	2.075534E+14	1.733652E-5	57681.618496	5.921693E+16	0	0	13.471614	1.144921	0	0
4.727687	8.541084	-0.555535	37.3234	0.728358	37.008447	0.728358	1.918866E+14	1.72504E-5	57969.608404	5.914345E+16	0	0	13.499441	1.14125	0	0
5.113979	8.536527	-0.617447	37.203014	1.263	36.652291	1.263	1.776718E+14	1.714678E-5	58319.940824	5.907679E+16	0	0	13.508125	1.140119	0	0
6.772746	8.523112	2.089036	37.086548	1.748652	36.317923	1.748652	1.649101E+14	1.705407E-5	58636.970182	5.901694E+16	0	0	13.480902	1.138144	0	0
9.590848	8.517989	1.884832	36.971993	2.192448	36.000728	2.192448	1.532418E+14	1.695622E-5	58975.364384	5.896221E+16	0	0	13.494168	1.133358	0	0
12.372443	8.506778	1.710405	36.85863	2.603736	35.696269	2.603736	1.424989E+14	1.686083E-5	59309.02443	5.891183E+16	0	0	13.505112	1.126199	0	0
15.080938	8.481779	1.562902	36.744043	2.991816	35.398103	2.991816	1.323972E+14	1.676227E-5	59657.745572	5.886445E+16	0	0	13.520767	1.119446	0	0
17.789081	8.468108	1.301976	36.630011	3.360164	35.106815	3.360164	1.230486E+14	1.668754E-5	59924.932862	5.882061E+16	0	0	13.532228	1.113457	0	0
20.497017	8.431718	1.090842	36.514296	3.70078	34.823791	3.70078	1.142306E+14	1.658314E-5	60302.182151	5.877925E+16	0	0	13.527973	1.105287	0	0
23.189302	8.345959	0.91718	36.400362	4.017058	34.55159	4.017058	1.061608E+14	1.649046E-5	60641.113808	5.874141E+16	0	0	13.55083	1.095699	0	0
23.904535	8.319226	0.863684	36.283145	4.314005	34.282471	4.314005	9.844838E+13	1.636821E-5	61094.00224	5.870524E+16	0	0	13.569426	1.085975	0	0
24.623927	8.289231	0.808806	36.170077	4.584435	34.028367	4.584435	9.153649E+13	1.626077E-5	61497.703383	5.867282E+16	0	0	13.583535	1.076777	0	0
25.353729	8.256622	0.751298	36.059736	4.831152	33.786704	4.831152	8.525634E+13	1.615391E-5	61904.501603	5.864337E+16	0	0	13.602171	1.067229	0	0
26.004855	8.215232	0.706118	35.951176	5.058954	33.554414	5.058954	7.949553E+13	1.604943E-5	62307.500362	5.861635E+16	0	0	13.617793	1.056757	0	0
26.660432	8.167099	0.660636	35.841995	5.274341	33.325837	5.274341	7.409205E+13	1.594655E-5	62709.487642	5.859101E+16	0	0	13.642587	1.046285	0	0
27.344687	8.09959	0.618401	35.734938	5.474443	33.105659	5.474443	6.91485E+13	1.585553E-5	63069.47583	5.856783E+16	0	0	13.669683	1.036403	0	0
28.027117	8.006594	0.582934	35.628877	5.659684	32.892542	5.659684	6.457463E+13	1.576059E-5	63449.394105	5.854637E+16	0	0	13.687747	1.026369	0	0
28.698102	7.868772	0.559633	35.523094	5.832203	32.684758	5.832203	6.031266E+13	1.56599E-5	63857.364109	5.852639E+16	0	0	13.708487	1.016223	0	0
29.353751	7.679846	0.543956	35.414714	5.995121	32.477511	5.995121	5.623632E+13	1.553801E-5	64358.309001	5.850727E+16	0	0	13.731071	1.005855	0	0
30.024144	7.422217	0.533131	35.306023	6.149612	32.272988	6.149612	5.242383E+13	1.542263E-5	64839.758692	5.848939E+16	0	0	13.74858	0.996044	0	0
30.692332	7.1089	0.522771	35.199881	6.293253	32.075872	6.293253	4.894934E+13	1.532309E-5	65261.002476	5.847309E+16	0	0	13.764185	0.986687	0	0
31.341015	6.729974	0.516146	35.095568	6.42493	31.885998	6.42493	4.575835E+13	1.521797E-5	65711.794857	5.845813E+16	0	0	13.776665	0.976844	0	0
31.982137	6.294287	0.508665	34.992888	6.546814	31.702174	6.546814	4.281988E+13	1.511363E-5	66165.457686	5.844435E+16	0	0	13.784527	0.96708	0	0
32.628716	5.787982	0.501894	34.892822	6.65954	31.525366	6.65954	4.013727E+13	1.501817E-5	66585.993364	5.843177E+16	0	0	13.801359	0.957421	0	0
33.263114	5.228135	0.494835	34.79305	6.765415	31.351716	6.765415	3.762937E+13	1.492208E-5	67014.774036	5.842E+16	0	0	13.81339	0.948008	0	0
33.894068	4.611706	0.48656	34.693458	6.864711	31.181014	6.864711	3.528184E+13	1.482279E-5	67463.69525	5.8409E+16	0	0	13.828407	0.938547	0	0
34.496866	3.953056	0.482026	34.594242	6.957847	31.01334	6.957847	3.308841E+13	1.472207E-5	67925.250441	5.839871E+16	0	0	13.837679	0.928927	0	0
35.107877	3.25316	0.477823	34.495058	7.044853	30.848322	7.044853	3.103167E+13	1.461298E-5	68432.300851	5.838906E+16	0	0	13.850284	0.919395	0	0
35.67312	2.529469	0.484431	34.39705	7.126388	30.687061	7.126388	2.912463E+13	1.450868E-5	68924.253271	5.838012E+16	0	0	13.860226	0.909966	0	0
36.224441	1.806477	0.485377	34.299646	7.20302	30.528621	7.20302	2.734522E+13	1.440583E-5	69416.33799	5.837177E+16	0	0	13.86601	0.900577	0	0
36.656562	1.202949	0.489309	34.203256	7.274899	30.373468	7.274899	2.569115E+13	1.430633E-5	69899.132321	5.836402E+16	0	0	13.87821	0.890958	0	0
37.028428	0.672317	0.482226	34.107747	7.3426	30.221186	7.3426	2.415072E+13	1.421195E-5	70363.316295	5.835679E+16	0	0	13.89137	0.881608	0	0
28.466654	7.909159	0.572131	34.01268	7.407569	30.070508	7.407569	2.270897E+13	1.413344E-5	70754.157394	5.835003E+16	0	0	13.905586	0.872442	0	0
37.473404	0	0	33.917383	7.471944	29.919496	7.471944	2.134999E+13	1.409212E-5	70961.621573	5.834366E+16	0	0	13.902124	0.863619	0	0
0	0	0	33.822022	7.528967	29.771988	7.528967	2.007135E+13	1.399889E-5	71434.223898	5.833766E+16	0	0	13.912178	0.855002	0	0
0	0	0	33.728228	7.582945	29.627726	7.582945	1.888834E+13	1.392052E-5	71836.375321	5.833211E+16	0	0	13.922604	0.84645	0	0
0	0	0	33.634533	7.633694	29.485035	7.633694	1.777609E+13	1.383826E-5	72263.4203	5.83269E+16	0	0	13.929733	0.837977	0	0
0	0	0	33.542242	7.680698	29.345832	7.680698	1.674448E+13	1.375219E-5	72715.704286	5.832206E+16	0	0	13.92196	0.82991	0	0
0	0	0	33.447795	7.724748	29.205333	7.724748	1.575065E+13	1.363901E-5	73319.092282	5.83174E+16	0	0	13.920604	0.821787	0	0
0	0	0	33.354982	7.767182	29.067491	7.767182	1.483142E+13	1.355258E-5	73786.703238	5.831309E+16	0	0	13.920967	0.813784	0	0
0	0	0	33.263247	7.806776	28.932319	7.806776	1.397554E+13	1.346461E-5	74268.757743	5.830907E+16	0	0	13.919135	0.805828	0	0
0	0	0	33.170989	7.844728	28.797197	7.844728	1.316453E+13	1.338035E-5	74736.436189	5.830527E+16	0	0	13.917793	0.798008	0	0
0	0	0	33.080478	7.880565	28.665212	7.880565	1.24146E+13	1.330885E-5	75137.955855	5.830175E+16	0	0	13.913721	0.790259	0	0
0	0	0	32.990556	7.913018	28.535665	7.913018	1.171181E+13	1.321029E-5	75698.558205	5.829845E+16	0	0	13.914028	0.782614	0	0
0	0	0	32.900879	7.943933	28.407116	7.943933	1.105052E+13	1.311606E-5	76242.404665	5.829535E+16	0	0	13.921091	0.775001	0	0
0	0	0	32.812068	7.973061	28.28049	7.973061	1.043239E+13	1.302396E-5	76781.573768	5.829245E+16	0	0	13.933089	0.767548	0	0
0	0	0	32.723779	8.000731	28.155188	8.000731	9.85215E+12	1.293629E-5	77301.911264	5.828973E+16	0	0	13.955145	0.760237	0	0
0	0	0	32.637124	8.026645	28.032775	8.026645	9.314014E+12	1.285284E-5	77803.838779	5.828721E+16	0	0	13.935458	0.753054	0	0
0	0	0	32.55086	8.050232	27.912056	8.050232	8.807488E+12	1.274493E-5	78462.575439	5.828483E+16	0	0	13.922782	0.745871	0	0
0	0	0	32.464173	8.073589	27.790819	8.073589	8.326198E+12	1.265805E-5	79001.126273	5.828258E+16	0	0	13.911201	0.738672	0	0
0	0	0	32.378677	8.095318	27.671889	8.095318	7.877279E+12	1.25671E-5	79572.870645	5.828047E+16	0	0	13.901021	0.731728	0	0
0	0	0	32.294113	8.115552	27.554879	8.115552	7.457049E+12	1.247024E-5	80190.931576	5.82785E+16	0	0	13.891123	0.724816	0	0
0	0	0	32.20981	8.135023	27.438539	8.135023	7.060421E+12	1.238139E-5	80766.381923	5.827664E+16	0	0	13.880265	0.717919	0	0
0	0	0	32.125261	8.153812	27.322197	8.153812	6.683815E+12	1.229833E-5	81311.866551	5.827487E+16	0	0	13.867709	0.711214	0	0
0	0	0	32.039962	8.171111	27.205704	8.171111	6.324206E+12	1.21895E-5	82037.835488	5.827319E+16	0	0	13.855951	0.704596	0	0
0	0	0	31.955953	8.187893	27.091038	8.187893	5.988945E+12	1.210101E-5	82637.722822	5.827162E+16	0	0	13.844182	0.697979	0	0
0	0	0	31.874084	8.203741	26.979513	8.203741	5.679322E+12	1.202402E-5	83166.87822	5.827016E+16	0	0	13.828147	0.691369	0	0
0	0	0	31.79344	8.219022	26.869779	8.219022	5.38998E+12	1.196286E-5	83592.028725	5.826881E+16	0	0	13.810111	0.684887	0	0
0	0	0	31.708712	8.233912	26.755108	8.233912	5.101846E+12	1.188292E-5	84154.364974	5.826746E+16	0	0	13.797492	0.678325	0	0
0	0	0	31.622204	8.247267	26.639066	8.247267	4.823536E+12	1.175574E-5	85064.830967	5.826615E+16	0	0	13.780126	0.671994	0	0
0	0	0	31.536904	8.260306	26.524656	8.260306	4.563979E+12	1.165065E-5	85832.144676	5.826493E+16	0	0	13.760942	0.665591	0	0
0	0	0	31.453189	8.272664	26.412573	8.272664	4.322823E+12	1.155441E-5	86547.05523	5.82638E+16	0	0	13.742464	0.659316	0	0
0	0	0	31.368233	8.284641	26.299109	8.284641	4.09111E+12	1.14577E-5	87277.545338	5.826271E+16	0	0	13.726658	0.653049	0	0
0	0	0	31.284518	8.296503	26.187206	8.296503	3.874932E+12	1.139149E-5	87784.838494	5.82617E+16	0	0	13.71172	0.646941	0	0
0	0	0	31.200149	8.306929	26.075313	8.306929	3.668619E+12	1.127751E-5	88672.084434	5.826073E+16	0	0	13.702787	0.640379	0	0
0	0	0	31.117169	8.316853	25.965414	8.316853	3.476417E+12	1.117228E-5	89507.282844	5.825983E+16	0	0	13.690789	0.63396	0	0
0	0	0	31.033356	8.326304	25.854717	8.326304	3.292502E+12	1.105986E-5	90417.04724	5.825897E+16	0	0	13.674595	0.627852	0	0
0	0	0	30.949723	8.335252	25.744512	8.335252	3.118678E+12	1.094469E-5	91368.49276	5.825815E+16	0	0	13.657547	0.62188	0	0
0	0	0	30.866596	8.344057	25.634985	8.344057	2.954999E+12	1.084787E-5	92183.990532	5.825739E+16	0	0	13.639168	0.61605	0	0
0	0	0	30.782081	8.352729	25.523759	8.352729	2.797388E+12	1.075724E-5	92960.635476	5.825665E+16	0	0	13.61645	0.61042	0	0
0	0	0	30.696634	8.361224	25.411436	8.361224	2.646583E+12	1.067415E-5	93684.237078	5.825594E+16	0	0	13.597802	0.604679	0	0
0	0	0	30.612364	8.36853	25.301296	8.36853	2.505818E+12	1.054936E-5	94792.452548	5.825528E+16	0	0	13.574771	0.599096	0	0
0	0	0	30.531115	8.375948	25.194832	8.375948	2.377192E+12	1.04739E-5	95475.464285	5.825468E+16	0	0	13.548631	0.593426	0	0
0	0	0	30.450145	8.382297	25.089364	8.382297	2.255573E+12	1.03506E-5	96612.767419	5.825411E+16	0	0	13.524526	0.587788	0	0
0	0	0	30.368096	8.388719	24.982467	8.388719	2.13868E+12	1.024434E-5	97614.878086	5.825356E+16	0	0	13.495979	0.582166	0	0
0	0	0	30.287599	8.394658	24.877794	8.394658	2.029886E+12	1.013399E-5	98677.821599	5.825305E+16	0	0	13.469017	0.576759	0	0
0	0	0	30.205942	8.400767	24.771528	8.400767	1.925176E+12	1.00479E-5	99523.321717	5.825256E+16	0	0	13.431077	0.571423	0	0
0	0	0	30.123615	8.406346	24.664738	8.406346	1.825074E+12	9.937761E-6	100626.289143	5.825209E+16	0	0	13.407223	0.566143	0	0
0	0	0	30.042579	8.412227	24.55934	8.412227	1.731625E+12	9.879712E-6	101217.527937	5.825165E+16	0	0	13.381537	0.560895	0	0
0	0	0	29.959812	8.417013	24.45246	8.417013	1.641116E+12	9.742336E-6	102644.786745	5.825122E+16	0	0	13.354364	0.555671	0	0
0	0	0	29.877305	8.421873	24.345835	8.421873	1.555601E+12	9.630568E-6	103836.035238	5.825082E+16	0	0	13.320957	0.550567	0	0
0	0	0	29.794374	8.426686	24.238684	8.426686	1.474136E+12	9.530858E-6	104922.352222	5.825044E+16	0	0	13.29332	0.545542	0	0
0	0	0	29.70999	8.431395	24.129755	8.431395	1.395619E+12	9.432387E-6	106017.698473	5.825007E+16	0	0	13.263055	0.540525	0	0
0	0	0	29.626209	8.435462	24.021986	8.435462	1.321802E+12	9.297626E-6	107554.342061	5.824973E+16	0	0	13.228548	0.535611	0	0
0	0	0	29.542266	8.439595	23.913948	8.439595	1.251757E+12	9.18539E-6	108868.535858	5.82494E+16	0	0	13.196631	0.530602	0	0
0	0	0	29.458469	8.4435	23.806226	8.4435	1.185536E+12	9.069839E-6	110255.538562	5.824909E+16	0	0	13.169251	0.525713	0	0
0	0	0	29.374068	8.447377	23.697745	8.447377	1.122377E+12	8.96552E-6	111538.431363	5.824879E+16	0	0	13.139415	0.520728	0	0
0	0	0	29.289993	8.451329	23.589603	8.451329	1.062809E+12	8.889527E-6	112491.918378	5.824851E+16	0	0	13.104379	0.515934	0	0
0	0	0	29.204171	8.454308	23.479907	8.454308	1.005261E+12	8.717752E-6	114708.474233	5.824824E+16	0	0	13.059579	0.511283	0	0
0	0	0	29.119101	8.457438	23.371036	8.457438	9.512928E+11	8.581647E-6	116527.74202	5.824799E+16	0	0	13.023177	0.506688	0	0
0	0	0	29.034013	8.460663	23.262063	8.460663	9.002121E+11	8.47198E-6	118036.155331	5.824775E+16	0	0	12.982857	0.50199	0	0
0	0	0	28.947881	8.463934	23.151731	8.463934	8.512965E+11	8.379147E-6	119343.88426	5.824752E+16	0	0	12.943062	0.497434	0	0
0	0	0	28.861928	8.46695	23.041782	8.46695	8.051326E+11	8.27473E-6	120849.864677	5.82473E+16	0	0	12.904259	0.492871	0	0
0	0	0	28.773901	8.469569	22.929488	8.469569	7.604479E+11	8.127213E-6	123043.409218	5.824709E+16	0	0	12.872417	0.488316	0	0
0	0	0	28.685743	8.472179	22.817022	8.472179	7.181822E+11	7.993175E-6	125106.725709	5.82469E+16	0	0	12.828728	0.483944	0	0
0	0	0	28.597552	8.475015	22.704343	8.475015	6.782511E+11	7.904308E-6	126513.286622	5.824671E+16	0	0	12.785331	0.479509	0	0
0	0	0	28.509884	8.477342	22.592662	8.477342	6.407573E+11	7.767423E-6	128742.826286	5.824653E+16	0	0	12.750349	0.475065	0	0
0	0	0	28.421693	8.4798	22.48022	8.4798	6.051308E+11	7.660817E-6	130534.373385	5.824637E+16	0	0	12.713089	0.470789	0	0
0	0	0	28.33347	8.481975	22.367923	8.481975	5.71473E+11	7.530099E-6	132800.374925	5.824621E+16	0	0	12.668828	0.466528	0	0
0	0	0	28.243842	8.483904	22.254024	8.483904	5.391956E+11	7.37183E-6	135651.524769	5.824606E+16	0	0	12.623936	0.462164	0	0
0	0	0	28.154263	8.486126	22.139969	8.486126	5.087574E+11	7.270393E-6	137544.15106	5.824591E+16	0	0	12.589137	0.457856	0	0
0	0	0	28.066497	8.488451	22.028105	8.488451	4.806023E+11	7.209385E-6	138708.079893	5.824578E+16	0	0	12.541162	0.453675	0	0
0	0	0	27.978682	8.490181	21.916592	8.490181	4.539908E+11	7.071701E-6	141408.702157	5.824566E+16	0	0	12.492854	0.449622	0	0
0	0	0	27.886685	8.492081	21.799696	8.492081	4.276911E+11	6.955331E-6	143774.61627	5.824553E+16	0	0	12.447434	0.445409	0	0
0	0	0	27.795374	8.493887	21.68372	8.493887	4.030943E+11	6.841576E-6	146165.16075	5.824542E+16	0	0	12.397413	0.441379	0	0
0	0	0	27.704341	8.495504	21.568218	8.495504	3.799804E+11	6.711733E-6	148992.816046	5.824531E+16	0	0	12.346421	0.43735	0	0
0	0	0	27.613505	8.497281	21.452838	8.497281	3.582374E+11	6.623954E-6	150967.227956	5.824521E+16	0	0	12.287748	0.433376	0	0
0	0	0	27.521802	8.49902	21.336388	8.49902	3.375489E+11	6.541124E-6	152878.914951	5.824511E+16	0	0	12.249638	0.429235	0	0
0	0	0	27.429952	8.50042	21.219993	8.50042	3.180249E+11	6.410415E-6	155996.132831	5.824502E+16	0	0	12.199112	0.425524	0	0
0	0	0	27.336224	8.501526	21.101445	8.501526	2.992652E+11	6.23023E-6	160507.725644	5.824493E+16	0	0	12.149422	0.421742	0	0
0	0	0	27.241908	8.50266	20.982131	8.50266	2.815046E+11	6.064554E-6	164892.573745	5.824485E+16	0	0	12.10008	0.417895	0	0
0	0	0	27.145632	8.504153	20.860083	8.504153	2.644617E+11	5.97104E-6	167475.001259	5.824477E+16	0	0	12.058118	0.4142	0	0
0	0	0	27.047362	8.505032	20.735978	8.505032	2.481295E+11	5.765378E-6	173449.176755	5.824469E+16	0	0	12.012675	0.410441	0	0
0	0	0	26.946382	8.50645	20.60806	8.50645	2.323968E+11	5.665717E-6	176500.16349	5.824462E+16	0	0	11.949301	0.406914	0	0
0	0	0	26.8438	8.507556	20.478356	8.507556	2.174357E+11	5.512787E-6	181396.447269	5.824455E+16	0	0	11.891133	0.403258	0	0
0	0	0	26.741496	8.508776	20.348908	8.508776	2.034744E+11	5.396534E-6	185304.118951	5.824448E+16	0	0	11.84442	0.399579	0	0
0	0	0	26.63769	8.509966	20.217587	8.509966	1.90224E+11	5.282867E-6	189291.140643	5.824442E+16	0	0	11.782558	0.396139	0	0
0	0	0	26.532756	8.511148	20.084849	8.511148	1.777065E+11	5.177241E-6	193153.066117	5.824436E+16	0	0	11.728302	0.392547	0	0
0	0	0	26.426173	8.512187	19.950138	8.512187	1.658351E+11	5.049295E-6	198047.454932	5.824431E+16	0	0	11.674668	0.389012	0	0
0	0	0	26.316469	8.512991	19.811681	8.512991	1.544439E+11	4.872321E-6	205241.005325	5.824425E+16	0	0	11.625189	0.385428	0	0
0	0	0	26.205933	8.514304	19.67178	8.514304	1.437574E+11	4.819703E-6	207481.664174	5.82442E+16	0	0	11.561156	0.381948	0	0
0	0	0	26.093207	8.515278	19.529382	8.515278	1.336205E+11	4.698307E-6	212842.627453	5.824415E+16	0	0	11.509884	0.378587	0	0
0	0	0	25.976398	8.515675	19.382292	8.515675	1.238698E+11	4.443971E-6	225023.974685	5.824411E+16	0	0	11.460766	0.375211	0	0
0	0	0	25.857156	8.516856	19.231531	8.516856	1.146495E+11	4.377478E-6	228442.040249	5.824407E+16	0	0	11.393507	0.371898	0	0
0	0	0	25.738811	8.51748	19.082326	8.51748	1.061773E+11	4.196484E-6	238294.712548	5.824403E+16	0	0	11.334594	0.368569	0	0
0	0	0	25.617134	8.518208	18.928847	8.518208	9.81189E+10	4.043747E-6	247295.415952	5.824399E+16	0	0	11.286374	0.365177	0	0
0	0	0	25.493285	8.518955	18.772618	8.518955	9.054439E+10	3.902696E-6	256233.119636	5.824395E+16	0	0	11.231179	0.36192	0	0
0	0	0	25.367263	8.519862	18.613526	8.519862	8.343693E+10	3.808524E-6	262568.93577	5.824392E+16	0	0	11.160257	0.358806	0	0
0	0	0	25.238367	8.519938	18.451475	8.519938	7.674413E+10	3.520504E-6	284050.270716	5.824389E+16	0	0	11.09959	0.355661	0	0
0	0	0	25.106889	8.520713	18.285622	8.520713	7.04701E+10	3.405157E-6	293672.194486	5.824386E+16	0	0	11.036336	0.352634	0	0
0	0	0	24.971655	8.521413	18.115101	8.521413	6.455148E+10	3.276946E-6	305162.166452	5.824383E+16	0	0	10.970343	0.349584	0	0
0	0	0	24.83415	8.522102	17.941729	8.522102	5.904291E+10	3.154717E-6	316985.611722	5.82438E+16	0	0	10.90887	0.346574	0	0
0	0	0	24.6931	8.522764	17.763919	8.522764	5.38804E+10	3.03155E-6	329864.242955	5.824378E+16	0	0	10.851724	0.34354	0	0
0	0	0	24.547591	8.523265	17.58063	8.523265	4.902724E+10	2.873911E-6	347957.912058	5.824376E+16	0	0	10.790195	0.34061	0	0
0	0	0	24.399387	8.523955	17.393793	8.523955	4.453329E+10	2.770059E-6	361003.123558	5.824374E+16	0	0	10.727148	0.337623	0	0
0	0	0	24.245466	8.524087	17.200226	8.524087	4.030152E+10	2.536681E-6	394215.854014	5.824372E+16	0	0	10.669572	0.334725	0	0
0	0	0	24.086595	8.524928	16.999847	8.524928	3.635497E+10	2.474888E-6	404058.742253	5.82437E+16	0	0	10.604846	0.331937	0	0
0	0	0	23.924964	8.52542	16.796283	8.52542	3.273621E+10	2.340092E-6	427333.679329	5.824368E+16	0	0	10.528375	0.329158	0	0
0	0	0	23.758645	8.526062	16.586695	8.526062	2.938815E+10	2.247861E-6	444867.450554	5.824367E+16	0	0	10.46516	0.326275	0	0
0	0	0	23.588454	8.526299	16.372578	8.526299	2.631633E+10	2.066158E-6	483990.088142	5.824365E+16	0	0	10.406081	0.3236	0	0
0	0	0	23.414735	8.527045	16.153589	8.527045	2.351173E+10	2.0141E-6	496499.753088	5.824364E+16	0	0	10.32962	0.320797	0	0
0	0	0	23.233731	8.527121	15.92601	8.527121	2.090698E+10	1.807728E-6	553180.46101	5.824363E+16	0	0	10.264158	0.318017	0	0
0	0	0	23.046634	8.527452	15.690551	8.527452	1.851746E+10	1.66915E-6	599107.227652	5.824361E+16	0	0	10.201864	0.315389	0	0
0	0	0	22.855617	8.528368	15.449653	8.528368	1.635939E+10	1.671267E-6	598348.538224	5.82436E+16	0	0	10.126618	0.312722	0	0
0	0	0	22.658801	8.528812	15.201868	8.528812	1.439857E+10	1.572605E-6	635887.528208	5.82436E+16	0	0	10.05263	0.310133	0	0
0	0	0	22.456578	8.529228	14.947306	8.529228	1.262839E+10	1.474678E-6	678114.315367	5.824359E+16	0	0	9.984723	0.307585	0	0
0	0	0	22.249619	8.52937	14.687027	8.52937	1.104186E+10	1.320608E-6	757226.74532	5.824358E+16	0	0	9.901821	0.304854	0	0
0	0	0	22.04078	8.529587	14.424317	8.529587	9.642896E+9	1.197681E-6	834947.022322	5.824357E+16	0	0	9.818988	0.302433	0	0
0	0	0	21.835193	8.529927	14.165581	8.529927	8.438949E+9	1.115289E-6	896628.933588	5.824357E+16	0	0	9.759139	0.299869	0	0
0	0	0	21.630895	8.530079	13.908633	8.530079	7.391503E+9	1.005512E-6	994518.282936	5.824356E+16	0	0	9.694506	0.297288	0	0
0	0	0	21.427856	8.530523	13.652998	8.530523	6.47935E+9	9.644119E-7	1036901.347737	5.824356E+16	0	0	9.619917	0.294828	0	0
0	0	0	21.224473	8.53108	13.396823	8.53108	5.678499E+9	9.5847E-7	1043329.441449	5.824355E+16	0	0	9.555955	0.292375	0	0
0	0	0	21.021123	8.530797	13.141457	8.530797	4.976739E+9	7.864853E-7	1271479.577848	5.824355E+16	0	0	9.481636	0.289922	0	0
0	0	0	20.817414	8.531505	12.884722	8.531505	4.360687E+9	8.198662E-7	1219711.157302	5.824355E+16	0	0	9.394713	0.287565	0	0
