Vload_(V)	ILoad_(I)	RsLoad (ohm)	SunsVoc_Voltage_(V)	SunsVoc_Current_(A)	Model_Voltage_(V)	Model_Current_(I)	Carrier_Density_(cm-3)	Lifetime_(s)	Inverse_Lifetime_(s-1)
6.49776	9.88398	0.00000	40.0850	-0.250444	40.1527	-0.250444	1075530000000000	0.0000744828	13424.0
6.53452	9.91182	-0.683010	40.0883	-0.101076	40.1157	-0.101076	1077710000000000	0.0000757500	13199.4
6.56349	9.89842	-0.687236	39.9747	0.616634	39.8077	0.616634	1006440000000000	0.0000762196	13118.3
6.63512	9.91395	-0.692952	39.8532	1.27611	39.5071	1.27611	935153000000000	0.0000762463	13113.9
7.24539	9.90143	-0.755811	39.7322	1.88173	39.2211	1.88173	868866000000000	0.0000762031	13121.6
8.79624	9.87077	1.93380	39.6113	2.45244	38.9442	2.45244	807043000000000	0.0000762167	13119.4
10.5913	9.87680	1.58654	39.4887	2.98290	38.6762	2.98290	748647000000000	0.0000761363	13133.4
12.3542	9.86681	1.66654	39.3677	3.47287	38.4205	3.47287	694996000000000	0.0000760819	13142.9
14.1774	9.86687	1.48054	39.2460	3.91891	38.1757	3.91891	644681000000000	0.0000758510	13183.0
15.9647	9.87157	1.18865	39.1294	4.31371	37.9497	4.31371	599780000000000	0.0000755697	13232.2
17.8197	9.87649	0.865561	39.0156	4.67589	37.7353	4.67589	558854000000000	0.0000753098	13278.0
19.5688	9.86827	0.902265	38.9043	5.01514	37.5295	5.01514	521456000000000	0.0000751664	13303.4
21.4290	9.85871	0.835289	38.7920	5.33247	37.3284	5.33247	486141000000000	0.0000749616	13339.8
23.1709	9.85137	0.706200	38.6805	5.62836	37.1337	5.62836	453352000000000	0.0000747662	13374.7
24.9822	9.83813	0.594118	38.5686	5.90312	36.9444	5.90312	422643000000000	0.0000745124	13420.3
26.7465	9.83361	0.433608	38.4574	6.16160	36.7599	6.16160	394087000000000	0.0000743025	13458.2
27.3392	9.82590	0.400583	38.3493	6.39345	36.5859	6.39345	368159000000000	0.0000740245	13508.8
27.9513	9.82855	0.329248	38.2447	6.60562	36.4206	6.60562	344632000000000	0.0000737787	13553.9
28.5626	9.82554	0.277276	38.1397	6.80438	36.2586	6.80438	322496000000000	0.0000734956	13606.1
29.1460	9.81563	0.248913	38.0355	6.98914	36.1011	6.98914	301915000000000	0.0000731968	13661.7
29.7457	9.78176	0.263007	37.9321	7.16307	35.9473	7.16307	282743000000000	0.0000729306	13711.5
30.3241	9.74038	0.266778	37.8294	7.32287	35.7980	7.32287	264890000000000	0.0000725887	13776.1
30.9535	9.66824	0.276231	37.7285	7.47201	35.6536	7.47201	248443000000000	0.0000722914	13832.8
31.5183	9.57804	0.282312	37.6267	7.61311	35.5102	7.61311	232844000000000	0.0000719621	13896.1
32.1126	9.45363	0.284569	37.5244	7.74505	35.3688	7.74505	218148000000000	0.0000715792	13970.5
32.6918	9.29442	0.284927	37.4254	7.86758	35.2333	7.86758	204793000000000	0.0000712802	14029.1
33.2732	9.08686	0.283879	37.3272	7.98149	35.1011	7.98149	192351000000000	0.0000709586	14092.7
33.8517	8.81119	0.283695	37.2292	8.08808	34.9709	8.08808	180663000000000	0.0000706022	14163.8
34.4161	8.48731	0.280521	37.1338	8.18660	34.8457	8.18660	169975000000000	0.0000702809	14228.6
34.9816	8.07439	0.278552	37.0400	8.27830	34.7239	8.27830	160066000000000	0.0000699633	14293.2
35.5396	7.58117	0.276596	36.9465	8.36488	34.6037	8.36488	150753000000000	0.0000696481	14357.9
36.0894	7.00993	0.273373	36.8527	8.44668	34.4846	8.44668	141952000000000	0.0000693148	14426.9
36.6199	6.36223	0.271151	36.7605	8.52379	34.3684	8.52379	133798000000000	0.0000690368	14485.0
37.1403	5.64245	0.268186	36.6665	8.59833	34.2511	8.59833	125967000000000	0.0000687643	14542.4
37.6415	4.86366	0.266652	36.5742	8.66771	34.1369	8.66771	118713000000000	0.0000685010	14598.3
38.1264	4.03927	0.268035	36.4836	8.73142	34.0260	8.73142	111995000000000	0.0000681970	14663.4
38.5922	3.18187	0.271364	36.3942	8.79108	33.9174	8.79108	105738000000000	0.0000679019	14727.1
39.0327	2.30271	0.276933	36.3064	8.84611	33.8117	8.84611	99929900000000	0.0000675750	14798.4
32.5534	9.33371	0.286084	36.2200	8.89874	33.7081	8.89874	94522400000000	0.0000673326	14851.6
40.0208	0.00000	0.00000	36.1342	8.94713	33.6064	8.94713	89442100000000	0.0000670042	14924.4
0.00000	0.00000	0.00000	36.0491	8.99320	33.5059	8.99320	84671400000000	0.0000667110	14990.0
0.00000	0.00000	0.00000	35.9639	9.03731	33.4060	9.03731	80150100000000	0.0000664389	15051.4
0.00000	0.00000	0.00000	35.8800	9.07823	33.3082	9.07823	75930400000000	0.0000661376	15120.0
0.00000	0.00000	0.00000	35.7973	9.11727	33.2121	9.11727	71983800000000	0.0000658924	15176.3
0.00000	0.00000	0.00000	35.7129	9.15371	33.1150	9.15371	68168700000000	0.0000655137	15264.0
0.00000	0.00000	0.00000	35.6309	9.18821	33.0210	9.18821	64659000000000	0.0000652221	15332.2
0.00000	0.00000	0.00000	35.5495	9.22113	32.9280	9.22113	61347800000000	0.0000649556	15395.1
0.00000	0.00000	0.00000	35.4671	9.25126	32.8347	9.25126	58169900000000	0.0000645235	15498.2
0.00000	0.00000	0.00000	35.3853	9.28130	32.7421	9.28130	55178500000000	0.0000642566	15562.6
0.00000	0.00000	0.00000	35.3032	9.30943	32.6496	9.30943	52325400000000	0.0000639171	15645.3
0.00000	0.00000	0.00000	35.2214	9.33551	32.5581	9.33551	49635000000000	0.0000635132	15744.8
0.00000	0.00000	0.00000	35.1421	9.36107	32.4692	9.36107	47154000000000	0.0000632878	15800.8
0.00000	0.00000	0.00000	35.0639	9.38435	32.3821	9.38435	44828700000000	0.0000629710	15880.3
0.00000	0.00000	0.00000	34.9874	9.40601	32.2973	9.40601	42667700000000	0.0000626509	15961.5
0.00000	0.00000	0.00000	34.9113	9.42753	32.2128	9.42753	40618300000000	0.0000624543	16011.7
0.00000	0.00000	0.00000	34.8341	9.44724	32.1278	9.44724	38641300000000	0.0000620952	16104.3
0.00000	0.00000	0.00000	34.7575	9.46611	32.0436	9.46611	36773800000000	0.0000617634	16190.8
0.00000	0.00000	0.00000	34.6831	9.48403	31.9620	9.48403	35045900000000	0.0000614984	16260.6
0.00000	0.00000	0.00000	34.6076	9.50144	31.8793	9.50144	33375000000000	0.0000612313	16331.5
0.00000	0.00000	0.00000	34.5331	9.51779	31.7980	9.51779	31805000000000	0.0000609567	16405.1
0.00000	0.00000	0.00000	34.4588	9.53357	31.7170	9.53357	30311600000000	0.0000607108	16471.5
0.00000	0.00000	0.00000	34.3859	9.54881	31.6375	9.54881	28913900000000	0.0000605442	16516.8
0.00000	0.00000	0.00000	34.3133	9.56192	31.5591	9.56192	27587400000000	0.0000601181	16633.9
0.00000	0.00000	0.00000	34.2408	9.57536	31.4806	9.57536	26323100000000	0.0000598607	16705.5
0.00000	0.00000	0.00000	34.1690	9.58902	31.4027	9.58902	25126400000000	0.0000597862	16726.3
0.00000	0.00000	0.00000	34.0980	9.60006	31.3265	9.60006	23997400000000	0.0000593202	16857.7
0.00000	0.00000	0.00000	34.0275	9.61194	31.2506	9.61194	22928100000000	0.0000591513	16905.8
0.00000	0.00000	0.00000	33.9576	9.62293	31.1754	9.62293	21912600000000	0.0000589122	16974.4
0.00000	0.00000	0.00000	33.8860	9.63278	31.0989	9.63278	20919400000000	0.0000584471	17109.5
0.00000	0.00000	0.00000	33.8154	9.64313	31.0232	9.64313	19984700000000	0.0000582347	17171.9
0.00000	0.00000	0.00000	33.7452	9.65256	30.9483	9.65256	19096500000000	0.0000579133	17267.2
0.00000	0.00000	0.00000	33.6757	9.66227	30.8739	9.66227	18255500000000	0.0000577874	17304.8
0.00000	0.00000	0.00000	33.6068	9.67083	30.8006	9.67083	17459600000000	0.0000574893	17394.5
0.00000	0.00000	0.00000	33.5367	9.67851	30.7261	9.67851	16683800000000	0.0000569871	17547.8
0.00000	0.00000	0.00000	33.4679	9.68794	30.6526	9.68794	15957200000000	0.0000571275	17504.7
0.00000	0.00000	0.00000	33.3987	9.69427	30.5795	9.69427	15257300000000	0.0000564453	17716.3
0.00000	0.00000	0.00000	33.3308	9.70297	30.5071	9.70297	14600300000000	0.0000566109	17664.4
0.00000	0.00000	0.00000	33.2631	9.70997	30.4353	9.70997	13973500000000	0.0000563581	17743.7
0.00000	0.00000	0.00000	33.1946	9.71537	30.3633	9.71537	13367000000000	0.0000556406	17972.5
0.00000	0.00000	0.00000	33.1266	9.72329	30.2910	9.72329	12791000000000	0.0000558650	17900.3
0.00000	0.00000	0.00000	33.0592	9.72919	30.2199	9.72919	12244300000000	0.0000555154	18013.0
0.00000	0.00000	0.00000	32.9917	9.73415	30.1489	9.73415	11720000000000	0.0000548985	18215.4
0.00000	0.00000	0.00000	32.9237	9.74117	30.0769	9.74117	11214800000000	0.0000551128	18144.6
0.00000	0.00000	0.00000	32.8555	9.74714	30.0049	9.74714	10729700000000	0.0000550304	18171.8
0.00000	0.00000	0.00000	32.7903	9.75079	29.9367	9.75079	10285800000000	0.0000541999	18450.2
0.00000	0.00000	0.00000	32.7245	9.75475	29.8678	9.75475	9856220000000	0.0000535296	18681.2
0.00000	0.00000	0.00000	32.6602	9.76073	29.7999	9.76073	9454210000000	0.0000538369	18574.6
0.00000	0.00000	0.00000	32.5950	9.76575	29.7312	9.76575	9062640000000	0.0000537984	18587.9
0.00000	0.00000	0.00000	32.5297	9.76918	29.6631	9.76918	8687550000000	0.0000531134	18827.6
0.00000	0.00000	0.00000	32.4649	9.77237	29.5954	9.77237	8330080000000	0.0000523836	19089.9
0.00000	0.00000	0.00000	32.4006	9.77650	29.5280	9.77650	7989860000000	0.0000521729	19167.0
0.00000	0.00000	0.00000	32.3363	9.78149	29.4603	9.78149	7663760000000	0.0000524791	19055.2
0.00000	0.00000	0.00000	32.2719	9.78561	29.3927	9.78561	7350120000000	0.0000524420	19068.7
0.00000	0.00000	0.00000	32.2069	9.78852	29.3250	9.78852	7047060000000	0.0000518100	19301.3
0.00000	0.00000	0.00000	32.1421	9.79078	29.2576	9.79078	6756910000000	0.0000508796	19654.2
0.00000	0.00000	0.00000	32.0771	9.79354	29.1899	9.79354	6478230000000	0.0000502723	19891.7
0.00000	0.00000	0.00000	32.0123	9.79736	29.1221	9.79736	6211830000000	0.0000503286	19869.4
0.00000	0.00000	0.00000	31.9473	9.80133	29.0539	9.80133	5955110000000	0.0000505711	19774.1
0.00000	0.00000	0.00000	31.8821	9.80460	28.9858	9.80460	5708880000000	0.0000504764	19811.3
0.00000	0.00000	0.00000	31.8180	9.80728	28.9190	9.80728	5476420000000	0.0000501088	19956.6
0.00000	0.00000	0.00000	31.7505	9.80900	28.8490	9.80900	5241860000000	0.0000490662	20380.6
0.00000	0.00000	0.00000	31.6848	9.81093	28.7808	9.81093	5023240000000	0.0000482599	20721.1
0.00000	0.00000	0.00000	31.6207	9.81312	28.7142	9.81312	4818840000000	0.0000477309	20950.8
0.00000	0.00000	0.00000	31.5550	9.81664	28.6455	9.81664	4617770000000	0.0000481257	20778.9
0.00000	0.00000	0.00000	31.4883	9.81953	28.5759	9.81953	4422270000000	0.0000481534	20767.0
0.00000	0.00000	0.00000	31.4229	9.82263	28.5077	9.82263	4238720000000	0.0000484869	20624.1
0.00000	0.00000	0.00000	31.3583	9.82454	28.4405	9.82454	4064680000000	0.0000479916	20837.0
0.00000	0.00000	0.00000	31.2925	9.82633	28.3723	9.82633	3894980000000	0.0000474172	21089.4
0.00000	0.00000	0.00000	31.2277	9.82768	28.3052	9.82768	3734740000000	0.0000465557	21479.6
0.00000	0.00000	0.00000	31.1617	9.82891	28.2368	9.82891	3578160000000	0.0000456019	21928.9
0.00000	0.00000	0.00000	31.0957	9.83047	28.1684	9.83047	3428330000000	0.0000449622	22240.9
0.00000	0.00000	0.00000	31.0280	9.83210	28.0982	9.83210	3280980000000	0.0000443833	22531.0
0.00000	0.00000	0.00000	30.9615	9.83406	28.0291	9.83406	3142560000000	0.0000441832	22633.1
0.00000	0.00000	0.00000	30.8954	9.83628	27.9604	9.83628	3010710000000	0.0000443017	22572.5
0.00000	0.00000	0.00000	30.8283	9.83791	27.8908	9.83791	2882380000000	0.0000439127	22772.4
0.00000	0.00000	0.00000	30.7623	9.84017	27.8222	9.84017	2761730000000	0.0000442387	22604.6
0.00000	0.00000	0.00000	30.6948	9.84203	27.7521	9.84203	2643390000000	0.0000442260	22611.1
0.00000	0.00000	0.00000	30.6281	9.84362	27.6829	9.84362	2531440000000	0.0000440143	22719.9
0.00000	0.00000	0.00000	30.5604	9.84519	27.6128	9.84519	2422730000000	0.0000438320	22814.4
0.00000	0.00000	0.00000	30.4932	9.84624	27.5432	9.84624	2319330000000	0.0000431332	23184.0
0.00000	0.00000	0.00000	30.4251	9.84721	27.4728	9.84721	2219190000000	0.0000423570	23608.8
0.00000	0.00000	0.00000	30.3565	9.84781	27.4019	9.84781	2122550000000	0.0000411845	24281.0
0.00000	0.00000	0.00000	30.2877	9.84865	27.3309	9.84865	2030000000000	0.0000403220	24800.3
0.00000	0.00000	0.00000	30.2181	9.84964	27.2589	9.84964	1940330000000	0.0000396504	25220.4
0.00000	0.00000	0.00000	30.1483	9.85035	27.1868	9.85035	1854510000000	0.0000387069	25835.2
0.00000	0.00000	0.00000	30.0769	9.85183	27.1128	9.85183	1770530000000	0.0000386489	25873.9
0.00000	0.00000	0.00000	30.0057	9.85266	27.0392	9.85266	1690610000000	0.0000378782	26400.4
0.00000	0.00000	0.00000	29.9342	9.85425	26.9651	9.85425	1614010000000	0.0000380991	26247.3
0.00000	0.00000	0.00000	29.8626	9.85539	26.8911	9.85539	1540810000000	0.0000378204	26440.8
0.00000	0.00000	0.00000	29.7904	9.85686	26.8163	9.85686	1470350000000	0.0000380519	26279.9
0.00000	0.00000	0.00000	29.7184	9.85797	26.7418	9.85797	1403210000000	0.0000378582	26414.3
0.00000	0.00000	0.00000	29.6460	9.85930	26.6669	9.85930	1338890000000	0.0000380722	26265.9
0.00000	0.00000	0.00000	29.5739	9.86018	26.5923	9.86018	1277690000000	0.0000376728	26544.4
0.00000	0.00000	0.00000	29.5011	9.86150	26.5170	9.86150	1218770000000	0.0000380468	26283.4
0.00000	0.00000	0.00000	29.4270	9.86189	26.4405	9.86189	1161530000000	0.0000369046	27096.9
0.00000	0.00000	0.00000	29.3526	9.86337	26.3634	9.86337	1106840000000	0.0000376961	26528.0
0.00000	0.00000	0.00000	29.2776	9.86379	26.2861	9.86379	1054280000000	0.0000366416	27291.4
0.00000	0.00000	0.00000	29.2021	9.86459	26.2081	9.86459	1003910000000	0.0000363343	27522.2
0.00000	0.00000	0.00000	29.1247	9.86487	26.1282	9.86487	954719000000	0.0000350680	28516.1
0.00000	0.00000	0.00000	29.0466	9.86559	26.0477	9.86559	907589000000	0.0000346342	28873.2
0.00000	0.00000	0.00000	28.9678	9.86608	25.9664	9.86608	862375000000	0.0000338083	29578.6
0.00000	0.00000	0.00000	28.8879	9.86642	25.8839	9.86642	818771000000	0.0000327164	30565.7
0.00000	0.00000	0.00000	28.8068	9.86674	25.8003	9.86674	776828000000	0.0000316292	31616.3
0.00000	0.00000	0.00000	28.7252	9.86723	25.7161	9.86723	736768000000	0.0000308732	32390.6
0.00000	0.00000	0.00000	28.6434	9.86759	25.6317	9.86759	698692000000	0.0000299188	33423.8
0.00000	0.00000	0.00000	28.5589	9.86792	25.5447	9.86792	661454000000	0.0000289000	34602.1
0.00000	0.00000	0.00000	28.4737	9.86808	25.4568	9.86808	625863000000	0.0000276279	36195.3
0.00000	0.00000	0.00000	28.3875	9.86848	25.3679	9.86848	591829000000	0.0000268029	37309.4
0.00000	0.00000	0.00000	28.2996	9.86888	25.2773	9.86888	559036000000	0.0000259907	38475.2
0.00000	0.00000	0.00000	28.2091	9.86943	25.1840	9.86943	527176000000	0.0000254215	39336.8
0.00000	0.00000	0.00000	28.1180	9.86957	25.0900	9.86957	496911000000	0.0000241989	41324.2
0.00000	0.00000	0.00000	28.0254	9.87035	24.9944	9.87035	467941000000	0.0000240914	41508.7
0.00000	0.00000	0.00000	27.9266	9.87052	24.8926	9.87052	438890000000	0.0000228911	43685.1
0.00000	0.00000	0.00000	27.8273	9.87121	24.7902	9.87121	411524000000	0.0000226111	44226.0
0.00000	0.00000	0.00000	27.7280	9.87175	24.6877	9.87175	385845000000	0.0000221397	45167.7
0.00000	0.00000	0.00000	27.6287	9.87186	24.5854	9.87186	361771000000	0.0000209468	47740.0
0.00000	0.00000	0.00000	27.5269	9.87211	24.4805	9.87211	338654000000	0.0000200218	49945.5
0.00000	0.00000	0.00000	27.4247	9.87264	24.3752	9.87264	316946000000	0.0000196154	50980.4
0.00000	0.00000	0.00000	27.3199	9.87287	24.2671	9.87287	296109000000	0.0000187029	53467.6
0.00000	0.00000	0.00000	27.2116	9.87359	24.1554	9.87359	276024000000	0.0000186512	53615.7
0.00000	0.00000	0.00000	27.1029	9.87405	24.0432	9.87405	257219000000	0.0000181770	55014.7
0.00000	0.00000	0.00000	26.9917	9.87450	23.9286	9.87450	239323000000	0.0000177243	56419.6
0.00000	0.00000	0.00000	26.8780	9.87464	23.8114	9.87464	222308000000	0.0000166955	59896.3
0.00000	0.00000	0.00000	26.7623	9.87514	23.6921	9.87514	206236000000	0.0000163803	61048.9
0.00000	0.00000	0.00000	26.6439	9.87581	23.5699	9.87581	190984000000	0.0000164147	60921.0
0.00000	0.00000	0.00000	26.5232	9.87614	23.4456	9.87614	176604000000	0.0000158085	63257.0
0.00000	0.00000	0.00000	26.3993	9.87662	23.3178	9.87662	162965000000	0.0000155314	64385.7
0.00000	0.00000	0.00000	26.2717	9.87668	23.1863	9.87668	150016000000	0.0000144273	69313.1
0.00000	0.00000	0.00000	26.1427	9.87688	23.0535	9.87688	137979000000	0.0000136354	73338.6
0.00000	0.00000	0.00000	26.0102	9.87768	22.9168	9.87768	126615000000	0.0000141003	70920.3
0.00000	0.00000	0.00000	25.8753	9.87771	22.7778	9.87771	116004000000	0.0000129881	76993.8
0.00000	0.00000	0.00000	25.7376	9.87809	22.6359	9.87809	106092000000	0.0000126425	79098.4
0.00000	0.00000	0.00000	25.5954	9.87858	22.4893	9.87858	96745300000	0.0000125674	79571.2
0.00000	0.00000	0.00000	25.4496	9.87875	22.3391	9.87875	88015400000	0.0000118135	84648.7
0.00000	0.00000	0.00000	25.2989	9.87915	22.1837	9.87915	79817400000	0.0000116016	86195.0
0.00000	0.00000	0.00000	25.1446	9.87902	22.0249	9.87902	72216000000	0.0000102249	97800.3
0.00000	0.00000	0.00000	24.9867	9.87991	21.8619	9.87991	65182800000	0.0000112371	88990.6
0.00000	0.00000	0.00000	24.8253	9.87994	21.6957	9.87994	58702000000	0.0000102034	98006.5
0.00000	0.00000	0.00000	24.6577	9.88029	21.5230	9.88029	52657100000	0.0000100111	99889.5
0.00000	0.00000	0.00000	24.4851	9.88033	21.3452	9.88033	47079200000	0.00000905886	110389
0.00000	0.00000	0.00000	24.3065	9.88071	21.1611	9.88071	41927900000	0.00000900206	111086
0.00000	0.00000	0.00000	24.1210	9.88072	20.9700	9.88072	37173600000	0.00000801005	124843
0.00000	0.00000	0.00000	23.9298	9.88085	20.7731	9.88085	32838900000	0.00000737101	135667
0.00000	0.00000	0.00000	23.7359	9.88068	20.5735	9.88068	28958100000	0.00000616132	162303
0.00000	0.00000	0.00000	23.5373	9.88144	20.3687	9.88144	25456400000	0.00000702677	142313
0.00000	0.00000	0.00000	23.3328	9.88147	20.1580	9.88147	22293700000	0.00000623486	160389
0.00000	0.00000	0.00000	23.1226	9.88166	19.9416	9.88166	19452900000	0.00000587103	170328
0.00000	0.00000	0.00000	22.9089	9.88167	19.7214	9.88167	16934000000	0.00000513599	194704
0.00000	0.00000	0.00000	22.6886	9.88202	19.4944	9.88202	14679200000	0.00000526329	189995
0.00000	0.00000	0.00000	22.4634	9.88168	19.2626	9.88168	12684400000	0.00000386698	258600
0.00000	0.00000	0.00000	22.2349	9.88228	19.0270	9.88228	10936600000	0.00000452182	221150
0.00000	0.00000	0.00000	22.0024	9.88213	18.7877	9.88213	9405620000	0.00000357187	279965
0.00000	0.00000	0.00000	21.7663	9.88253	18.5444	9.88253	8070230000	0.00000391020	255742
0.00000	0.00000	0.00000	21.5252	9.88226	18.2961	9.88226	6901430000	0.00000281950	354673
0.00000	0.00000	0.00000	21.2818	9.88252	18.0453	9.88252	5893410000	0.00000283556	352664
0.00000	0.00000	0.00000	21.0364	9.88275	17.7926	9.88275	5026340000	0.00000286369	349200
0.00000	0.00000	0.00000	20.7872	9.88279	17.5359	9.88279	4276080000	0.00000252517	396013
0.00000	0.00000	0.00000	20.5319	9.88308	17.2728	9.88308	3623260000	0.00000283509	352723
0.00000	0.00000	0.00000	20.2698	9.88278	17.0030	9.88278	3056740000	0.00000178945	558831
0.00000	0.00000	0.00000	20.0095	9.88298	16.7348	9.88298	2581830000	0.00000180388	554361
0.00000	0.00000	0.00000	19.7472	9.88294	16.4647	9.88294	2177960000	0.00000147438	678251
0.00000	0.00000	0.00000	19.4820	9.88301	16.1916	9.88301	1833720000	0.00000132418	755187
0.00000	0.00000	0.00000	19.2157	9.88317	15.9173	9.88317	1542800000	0.00000133684	748034
0.00000	0.00000	0.00000	18.9468	9.88297	15.6403	9.88297	1295800000	0.000000896104	1115940
0.00000	0.00000	0.00000	18.6746	9.88322	15.3599	9.88322	1086070000	0.00000100844	991631
0.00000	0.00000	0.00000	18.4014	9.88351	15.0785	9.88351	909725000	0.00000134339	744387
0.00000	0.00000	0.00000	18.1272	9.88326	14.7961	9.88326	761456000	0.000000738774	1353590
0.00000	0.00000	0.00000	17.8509	9.88335	14.5115	9.88335	636495000	0.000000713334	1401870
0.00000	0.00000	0.00000	17.5727	9.88315	14.2251	9.88315	531416000	0.000000448708	2228620
0.00000	0.00000	0.00000	17.2961	9.88311	13.9402	9.88311	444121000	0.000000356502	2805030
0.00000	0.00000	0.00000	17.0162	9.88363	13.6518	9.88363	370389000	0.000000752145	1329530
0.00000	0.00000	0.00000	16.7334	9.88353	13.3606	9.88353	308315000	0.000000477161	2095730
0.00000	0.00000	0.00000	16.4469	9.88352	13.0655	9.88352	256020000	0.000000387034	2583750
0.00000	0.00000	0.00000	16.1658	9.88369	12.7759	9.88369	213341000	0.000000513463	1947560
0.00000	0.00000	0.00000	15.8838	9.88355	12.4855	9.88355	177670000	0.000000288739	3463330
0.00000	0.00000	0.00000	15.6036	9.88399	12.1968	9.88399	148145000	-0.00000988211	-101193
0.00000	0.00000	0.00000	15.3237	9.88404	11.9085	9.88404	123549000	-0.00000134482	-743595
