Vload_(V)	ILoad_(I)	RsLoad (ohm)	SunsVoc_Voltage_(V)	SunsVoc_Current_(A)	Model_Voltage_(V)	Model_Current_(I)	Carrier_Density_(cm-3)	Lifetime_(s)	Inverse_Lifetime_(s-1)
3.20368	6.42894	0.00000	65.2039	-0.391381	65.3174	-0.391381	4013180000000000	0.000247007	4021.73
3.22411	6.43071	-0.538419	65.7740	-0.533854	65.9122	-0.533854	4585840000000000	0.000276478	3582.02
5.77406	6.42283	5.14783	65.7018	-0.203112	65.7552	-0.203112	4509520000000000	0.000285435	3469.67
8.58133	6.40942	6.31074	65.5469	0.209958	65.4900	0.209958	4349590000000000	0.000293599	3374.61
11.4906	6.40360	6.03821	65.3701	0.632753	65.1923	0.632753	4173150000000000	0.000302236	3279.76
14.1775	6.40151	5.66924	65.1930	1.02104	64.8962	1.02104	4002840000000000	0.000310717	3191.77
16.9843	6.40065	5.24899	65.0105	1.39133	64.5922	1.39133	3833800000000000	0.000319470	3105.79
19.8280	6.39740	4.86644	64.8323	1.73453	64.2939	1.73453	3674850000000000	0.000328613	3020.68
22.7126	6.39488	4.45797	64.6532	2.05362	63.9957	2.05362	3520960000000000	0.000337813	2939.64
25.7367	6.39314	4.01241	64.4728	2.35577	63.6953	2.35577	3371610000000000	0.000347480	2859.00
28.8660	6.35281	3.90984	64.2922	2.62978	63.3983	2.62978	3227700000000000	0.000356641	2786.64
31.7982	6.34664	3.48763	64.1170	2.88102	63.1100	2.88102	3093200000000000	0.000365981	2716.50
34.7332	6.34562	3.03145	63.9406	3.11424	62.8221	3.11424	2962740000000000	0.000375211	2650.60
37.6124	6.34355	2.58949	63.7699	3.32375	62.5451	3.32375	2841040000000000	0.000384074	2590.27
40.5079	6.33973	2.15433	63.5993	3.51907	62.2697	3.51907	2723710000000000	0.000392928	2532.68
43.2565	6.36122	1.58874	63.4319	3.70201	61.9993	3.70201	2612680000000000	0.000402195	2475.02
46.1158	6.34138	1.26077	63.2654	3.87435	61.7308	3.87435	2506100000000000	0.000411816	2417.85
47.0454	6.33172	1.16336	63.0969	4.03276	61.4625	4.03276	2402070000000000	0.000420816	2366.76
47.9762	6.31912	1.07356	62.9353	4.17907	61.2046	4.17907	2305710000000000	0.000430202	2315.67
48.9051	6.30159	0.994845	62.7712	4.31565	60.9452	4.31565	2211310000000000	0.000439253	2268.47
49.8532	6.27936	0.918561	62.6129	4.44281	60.6946	4.44281	2123320000000000	0.000448780	2220.78
50.7938	6.24677	0.859626	62.4507	4.56202	60.4404	4.56202	2036250000000000	0.000457856	2177.21
51.7463	6.20670	0.799740	62.2937	4.67200	60.1949	4.67200	1954880000000000	0.000467079	2134.62
52.6906	6.15452	0.747095	62.1342	4.77321	59.9483	4.77321	1875020000000000	0.000475383	2097.73
53.6222	6.09036	0.696783	61.9810	4.86680	59.7115	4.86680	1800950000000000	0.000483957	2060.92
54.5501	6.00226	0.657026	61.8273	4.95511	59.4749	4.95511	1729070000000000	0.000492482	2025.57
55.4852	5.89036	0.617337	61.6773	5.03748	59.2445	5.03748	1661260000000000	0.000501178	1990.72
56.3988	5.74924	0.581734	61.5235	5.11428	59.0105	5.11428	1594050000000000	0.000508996	1960.43
57.3103	5.56440	0.553375	61.3713	5.18670	58.7796	5.18670	1529810000000000	0.000516960	1930.50
58.2078	5.33364	0.526587	61.2240	5.25456	58.5560	5.25456	1469680000000000	0.000525338	1899.95
59.1075	5.04230	0.503035	61.0756	5.31872	58.3319	5.31872	1411110000000000	0.000533556	1870.91
59.9772	4.69174	0.481013	60.9206	5.37788	58.1008	5.37788	1352020000000000	0.000539984	1848.87
60.8421	4.26480	0.461447	60.7764	5.43299	57.8848	5.43299	1298910000000000	0.000547478	1823.76
61.6787	3.76132	0.442826	60.6335	5.48543	57.6712	5.48543	1248000000000000	0.000555258	1798.38
62.4741	3.20055	0.425555	60.4895	5.53559	57.4565	5.53559	1198380000000000	0.000563120	1773.44
63.2317	2.57775	0.427717	60.3410	5.58352	57.2364	5.58352	1148940000000000	0.000570493	1750.68
63.9394	1.91917	0.427189	60.2002	5.62753	57.0278	5.62753	1103630000000000	0.000578089	1727.82
54.2399	6.03553	0.667827	60.0608	5.66891	56.8219	5.66891	1060240000000000	0.000585599	1705.79
65.5073	0.00000	0.00000	59.9216	5.70785	56.6169	5.70785	1018320000000000	0.000592816	1685.14
0.00000	0.00000	0.00000	59.7819	5.74382	56.4125	5.74382	977648000000000	0.000599020	1667.81
0.00000	0.00000	0.00000	59.6483	5.77696	56.2172	5.77696	940017000000000	0.000605244	1650.76
0.00000	0.00000	0.00000	59.5129	5.80817	56.0204	5.80817	903137000000000	0.000610731	1636.03
0.00000	0.00000	0.00000	59.3820	5.83799	55.8297	5.83799	868609000000000	0.000617021	1619.44
0.00000	0.00000	0.00000	59.2448	5.86698	55.6309	5.86698	833618000000000	0.000622719	1604.71
0.00000	0.00000	0.00000	59.1123	5.89446	55.4387	5.89446	800935000000000	0.000629055	1588.62
0.00000	0.00000	0.00000	58.9801	5.91955	55.2481	5.91955	769403000000000	0.000634058	1576.16
0.00000	0.00000	0.00000	58.8513	5.94384	55.0621	5.94384	739673000000000	0.000640081	1561.39
0.00000	0.00000	0.00000	58.7222	5.96658	54.8763	5.96658	710845000000000	0.000645394	1548.60
0.00000	0.00000	0.00000	58.5933	5.98763	54.6917	5.98763	683024000000000	0.000649706	1538.38
0.00000	0.00000	0.00000	58.4670	6.00777	54.5107	6.00777	656632000000000	0.000654476	1527.22
0.00000	0.00000	0.00000	58.3403	6.02725	54.3294	6.02725	631036000000000	0.000659461	1515.73
0.00000	0.00000	0.00000	58.2151	6.04507	54.1509	6.04507	606560000000000	0.000663309	1506.98
0.00000	0.00000	0.00000	58.0893	6.06263	53.9717	6.06263	582797000000000	0.000667883	1496.71
0.00000	0.00000	0.00000	57.9673	6.07859	53.7983	6.07859	560493000000000	0.000671574	1488.52
0.00000	0.00000	0.00000	57.8442	6.09377	53.6238	6.09377	538731000000000	0.000674745	1481.56
0.00000	0.00000	0.00000	57.7230	6.10879	53.4516	6.10879	517999000000000	0.000679218	1471.84
0.00000	0.00000	0.00000	57.5999	6.12258	53.2776	6.12258	497644000000000	0.000681884	1466.11
0.00000	0.00000	0.00000	57.4757	6.13602	53.1023	6.13602	477808000000000	0.000684757	1459.99
0.00000	0.00000	0.00000	57.3580	6.14849	52.9361	6.14849	459637000000000	0.000687988	1453.16
0.00000	0.00000	0.00000	57.2361	6.16075	52.7644	6.16075	441450000000000	0.000690984	1446.89
0.00000	0.00000	0.00000	57.1168	6.17188	52.5967	6.17188	424249000000000	0.000692814	1443.09
0.00000	0.00000	0.00000	56.9979	6.18274	52.4296	6.18274	407674000000000	0.000695104	1438.36
0.00000	0.00000	0.00000	56.8775	6.19382	52.2603	6.19382	391478000000000	0.000698961	1430.44
0.00000	0.00000	0.00000	56.7566	6.20324	52.0913	6.20324	375764000000000	0.000698899	1430.59
0.00000	0.00000	0.00000	56.6393	6.21292	51.9269	6.21292	361059000000000	0.000701652	1424.99
0.00000	0.00000	0.00000	56.5224	6.22228	51.7631	6.22228	346892000000000	0.000704626	1418.99
0.00000	0.00000	0.00000	56.4063	6.23037	51.6013	6.23037	333316000000000	0.000704654	1418.95
0.00000	0.00000	0.00000	56.2886	6.23875	51.4369	6.23875	320023000000000	0.000706371	1415.52
0.00000	0.00000	0.00000	56.1745	6.24677	51.2776	6.24677	307592000000000	0.000708824	1410.63
0.00000	0.00000	0.00000	56.0589	6.25365	51.1171	6.25365	295429000000000	0.000707487	1413.31
0.00000	0.00000	0.00000	55.9440	6.26144	50.9567	6.26144	283762000000000	0.000711178	1405.98
0.00000	0.00000	0.00000	55.8317	6.26762	50.8010	6.26762	272757000000000	0.000709791	1408.74
0.00000	0.00000	0.00000	55.7163	6.27463	50.6403	6.27463	261845000000000	0.000712319	1403.75
0.00000	0.00000	0.00000	55.6049	6.28022	50.4862	6.28022	251687000000000	0.000710411	1407.53
0.00000	0.00000	0.00000	55.4942	6.28641	50.3323	6.28641	241936000000000	0.000712577	1403.26
0.00000	0.00000	0.00000	55.3810	6.29226	50.1753	6.29226	232318000000000	0.000713536	1401.38
0.00000	0.00000	0.00000	55.2707	6.29691	50.0233	6.29691	223288000000000	0.000709968	1408.43
0.00000	0.00000	0.00000	55.1602	6.30321	49.8693	6.30321	214548000000000	0.000716351	1395.89
0.00000	0.00000	0.00000	55.0492	6.30727	49.7167	6.30727	206094000000000	0.000711100	1406.20
0.00000	0.00000	0.00000	54.9377	6.31153	49.5631	6.31153	197899000000000	0.000707602	1413.16
0.00000	0.00000	0.00000	54.8251	6.31713	49.4068	6.31713	189926000000000	0.000713107	1402.25
0.00000	0.00000	0.00000	54.7179	6.32081	49.2594	6.32081	182613000000000	0.000708953	1410.48
0.00000	0.00000	0.00000	54.6067	6.32477	49.1063	6.32477	175292000000000	0.000706380	1415.62
0.00000	0.00000	0.00000	54.4952	6.32945	48.9522	6.32945	168234000000000	0.000709832	1408.74
0.00000	0.00000	0.00000	54.3873	6.33309	48.8037	6.33309	161644000000000	0.000707973	1412.44
0.00000	0.00000	0.00000	54.2762	6.33591	48.6517	6.33591	155116000000000	0.000699980	1428.57
0.00000	0.00000	0.00000	54.1659	6.33958	48.4999	6.33958	148873000000000	0.000699392	1429.78
0.00000	0.00000	0.00000	54.0574	6.34355	48.3501	6.34355	142957000000000	0.000702823	1422.80
0.00000	0.00000	0.00000	53.9475	6.34670	48.1993	6.34670	137194000000000	0.000700267	1428.00
0.00000	0.00000	0.00000	53.8410	6.34881	48.0538	6.34881	131809000000000	0.000690505	1448.19
0.00000	0.00000	0.00000	53.7340	6.35176	47.9070	6.35176	126604000000000	0.000688666	1452.06
0.00000	0.00000	0.00000	53.6204	6.35520	47.7507	6.35520	121287000000000	0.000690475	1448.25
0.00000	0.00000	0.00000	53.5153	6.35836	47.6062	6.35836	116556000000000	0.000693267	1442.42
0.00000	0.00000	0.00000	53.4043	6.36094	47.4541	6.36094	111744000000000	0.000689892	1449.48
0.00000	0.00000	0.00000	53.2986	6.36259	47.3101	6.36259	107339000000000	0.000679135	1472.44
0.00000	0.00000	0.00000	53.1911	6.36477	47.1631	6.36477	103026000000000	0.000674021	1483.62
0.00000	0.00000	0.00000	53.0821	6.36687	47.0142	6.36687	98823700000000	0.000668408	1496.08
0.00000	0.00000	0.00000	52.9749	6.36994	46.8668	6.36994	94849200000000	0.000674834	1481.83
0.00000	0.00000	0.00000	52.8639	6.37223	46.7149	6.37223	90891000000000	0.000672842	1486.22
0.00000	0.00000	0.00000	52.7523	6.37426	46.5623	6.37426	87069700000000	0.000668456	1495.97
0.00000	0.00000	0.00000	52.6480	6.37579	46.4202	6.37579	83638600000000	0.000660563	1513.85
0.00000	0.00000	0.00000	52.5373	6.37723	46.2696	6.37723	80140400000000	0.000650673	1536.86
0.00000	0.00000	0.00000	52.4258	6.37904	46.1173	6.37904	76755600000000	0.000645769	1548.53
0.00000	0.00000	0.00000	52.3169	6.38097	45.9685	6.38097	73581300000000	0.000643901	1553.03
0.00000	0.00000	0.00000	52.2047	6.38314	45.8150	6.38314	70445800000000	0.000645674	1548.76
0.00000	0.00000	0.00000	52.0921	6.38536	45.6608	6.38536	67426100000000	0.000649444	1539.77
0.00000	0.00000	0.00000	51.9814	6.38675	45.5101	6.38675	64580400000000	0.000642665	1556.01
0.00000	0.00000	0.00000	51.8685	6.38799	45.3564	6.38799	61795300000000	0.000633436	1578.68
0.00000	0.00000	0.00000	51.7596	6.38906	45.2084	6.38906	59219900000000	0.000623338	1604.26
0.00000	0.00000	0.00000	51.6453	6.39015	45.0531	6.39015	56629500000000	0.000612948	1631.45
0.00000	0.00000	0.00000	51.5203	6.39120	44.8832	6.39120	53920400000000	0.000599753	1667.35
0.00000	0.00000	0.00000	51.4035	6.39238	44.7244	6.39238	51504500000000	0.000591427	1690.82
0.00000	0.00000	0.00000	51.2866	6.39357	44.5654	6.39357	49190500000000	0.000583894	1712.64
0.00000	0.00000	0.00000	51.1741	6.39512	44.4120	6.39512	47060200000000	0.000584184	1711.79
0.00000	0.00000	0.00000	51.0566	6.39647	44.2519	6.39647	44929800000000	0.000580965	1721.27
0.00000	0.00000	0.00000	50.9298	6.39790	44.0791	6.39790	42736000000000	0.000578086	1729.84
0.00000	0.00000	0.00000	50.8164	6.39923	43.9246	6.39923	40863200000000	0.000577373	1731.98
0.00000	0.00000	0.00000	50.6959	6.40023	43.7609	6.40023	38961600000000	0.000569800	1755.00
0.00000	0.00000	0.00000	50.5775	6.40148	43.5997	6.40148	37176500000000	0.000568455	1759.15
0.00000	0.00000	0.00000	50.4570	6.40198	43.4364	6.40198	35442200000000	0.000551803	1812.24
0.00000	0.00000	0.00000	50.3329	6.40283	43.2680	6.40283	33739500000000	0.000542537	1843.19
0.00000	0.00000	0.00000	50.2091	6.40355	43.1001	6.40355	32120700000000	0.000531017	1883.18
0.00000	0.00000	0.00000	50.0824	6.40383	42.9287	6.40383	30542900000000	0.000510718	1958.03
0.00000	0.00000	0.00000	49.9563	6.40477	42.7573	6.40477	29047400000000	0.000504474	1982.26
0.00000	0.00000	0.00000	49.8192	6.40508	42.5718	6.40508	27503200000000	0.000483964	2066.27
0.00000	0.00000	0.00000	49.6857	6.40580	42.3908	6.40580	26078000000000	0.000473181	2113.35
0.00000	0.00000	0.00000	49.5463	6.40662	42.2016	6.40662	24666700000000	0.000463977	2155.28
0.00000	0.00000	0.00000	49.4090	6.40721	42.0154	6.40721	23350200000000	0.000451205	2216.29
0.00000	0.00000	0.00000	49.2627	6.40822	41.8167	6.40822	22023700000000	0.000446151	2241.39
0.00000	0.00000	0.00000	49.1159	6.40904	41.6176	6.40904	20768200000000	0.000438179	2282.17
0.00000	0.00000	0.00000	48.9622	6.40997	41.4088	6.40997	19528400000000	0.000432099	2314.29
0.00000	0.00000	0.00000	48.8075	6.41082	41.1989	6.41082	18354900000000	0.000425365	2350.92
0.00000	0.00000	0.00000	48.6443	6.41118	40.9781	6.41118	17192500000000	0.000406433	2460.43
0.00000	0.00000	0.00000	48.4816	6.41215	40.7571	6.41215	16105900000000	0.000402716	2483.14
0.00000	0.00000	0.00000	48.3090	6.41272	40.5233	6.41272	15027700000000	0.000388988	2570.77
0.00000	0.00000	0.00000	48.1342	6.41340	40.2863	6.41340	14008500000000	0.000378496	2642.04
0.00000	0.00000	0.00000	47.9496	6.41401	40.0362	6.41401	13006500000000	0.000365732	2734.24
0.00000	0.00000	0.00000	47.7593	6.41450	39.7786	6.41450	12048300000000	0.000350256	2855.06
0.00000	0.00000	0.00000	47.5598	6.41487	39.5087	6.41487	11118900000000	0.000331864	3013.28
0.00000	0.00000	0.00000	47.3488	6.41532	39.2230	6.41532	10212800000000	0.000314837	3176.25
0.00000	0.00000	0.00000	47.1292	6.41561	38.9261	6.41561	9348210000000	0.000294505	3395.53
0.00000	0.00000	0.00000	46.9008	6.41606	38.6169	6.41606	8525750000000	0.000278027	3596.77
0.00000	0.00000	0.00000	46.6626	6.41647	38.2946	6.41647	7744740000000	0.000260768	3834.82
0.00000	0.00000	0.00000	46.4163	6.41686	37.9614	6.41686	7012150000000	0.000243737	4102.78
0.00000	0.00000	0.00000	46.1661	6.41704	37.6231	6.41704	6338320000000	0.000223654	4471.18
0.00000	0.00000	0.00000	45.9076	6.41742	37.2734	6.41742	5710050000000	0.000208043	4806.69
0.00000	0.00000	0.00000	45.6421	6.41761	36.9144	6.41761	5129190000000	0.000190106	5260.23
0.00000	0.00000	0.00000	45.3706	6.41807	36.5470	6.41807	4596150000000	0.000177564	5631.78
0.00000	0.00000	0.00000	45.0895	6.41838	36.1667	6.41838	4102280000000	0.000163155	6129.13
0.00000	0.00000	0.00000	44.7979	6.41872	35.7724	6.41872	3646020000000	0.000149799	6675.62
0.00000	0.00000	0.00000	44.4984	6.41887	35.3675	6.41887	3229930000000	0.000134675	7425.29
0.00000	0.00000	0.00000	44.1877	6.41916	34.9473	6.41916	2848360000000	0.000122348	8173.44
0.00000	0.00000	0.00000	43.8676	6.41959	34.5142	6.41959	2502210000000	0.000112376	8898.69
0.00000	0.00000	0.00000	43.5354	6.41975	34.0650	6.41975	2187310000000	0.0000999506	10004.9
0.00000	0.00000	0.00000	43.1871	6.42029	33.5936	6.42029	1899610000000	0.0000922470	10840.5
0.00000	0.00000	0.00000	42.8228	6.42052	33.1011	6.42052	1639040000000	0.0000817181	12237.2
0.00000	0.00000	0.00000	42.4421	6.42065	32.5865	6.42065	1404840000000	0.0000711149	14061.7
0.00000	0.00000	0.00000	42.0320	6.42110	32.0318	6.42110	1189830000000	0.0000637081	15696.6
0.00000	0.00000	0.00000	41.6109	6.42125	31.4625	6.42125	1003210000000	0.0000547811	18254.5
0.00000	0.00000	0.00000	41.1741	6.42139	30.8720	6.42139	840452000000	0.0000467613	21385.2
0.00000	0.00000	0.00000	40.7292	6.42190	30.2701	6.42190	701820000000	0.0000418548	23892.1
0.00000	0.00000	0.00000	40.2648	6.42210	29.6422	6.42210	581401000000	0.0000356871	28021.4
0.00000	0.00000	0.00000	39.7897	6.42263	28.9994	6.42263	479576000000	0.0000319010	31347.0
0.00000	0.00000	0.00000	39.3011	6.42254	28.3393	6.42254	393419000000	0.0000258080	38747.6
0.00000	0.00000	0.00000	38.7954	6.42283	27.6555	6.42283	320501000000	0.0000220258	45401.4
0.00000	0.00000	0.00000	38.2731	6.42306	26.9493	6.42306	259347000000	0.0000185280	53972.5
0.00000	0.00000	0.00000	37.7257	6.42357	26.2086	6.42357	207731000000	0.0000162609	61497.1
0.00000	0.00000	0.00000	37.1620	6.42332	25.4474	6.42332	165296000000	0.0000123453	81002.4
0.00000	0.00000	0.00000	36.5804	6.42376	24.6606	6.42376	130575000000	0.0000105941	94392.4
0.00000	0.00000	0.00000	35.9735	6.42404	23.8400	6.42404	102098000000	0.00000875042	114280
0.00000	0.00000	0.00000	35.3460	6.42429	22.9915	6.42429	79162900000	0.00000714418	139974
0.00000	0.00000	0.00000	34.7016	6.42446	22.1204	6.42446	60964400000	0.00000571644	174934
0.00000	0.00000	0.00000	34.0462	6.42482	21.2339	6.42482	46737600000	0.00000476248	209975
0.00000	0.00000	0.00000	33.3677	6.42477	20.3172	6.42477	35498900000	0.00000357136	280005
0.00000	0.00000	0.00000	32.6658	6.42482	19.3685	6.42482	26707200000	0.00000272564	366886
0.00000	0.00000	0.00000	31.9451	6.42501	18.3941	6.42501	19939800000	0.00000213127	469204
0.00000	0.00000	0.00000	31.2204	6.42553	17.4137	6.42553	14863700000	0.00000182961	546563
0.00000	0.00000	0.00000	30.4811	6.42556	16.4145	6.42556	11014200000	0.00000136762	731196
0.00000	0.00000	0.00000	29.7374	6.42556	15.4094	6.42556	8146940000	0.00000101402	986178
0.00000	0.00000	0.00000	28.9852	6.42581	14.3924	6.42581	6005680000	0.000000806795	1239470
0.00000	0.00000	0.00000	28.2212	6.42598	13.3594	6.42598	4405850000	0.000000625934	1597610
0.00000	0.00000	0.00000	27.4521	6.42584	12.3203	6.42584	3225620000	0.000000437419	2286140
0.00000	0.00000	0.00000	26.6827	6.42629	11.2795	6.42629	2361230000	0.000000373976	2673970
0.00000	0.00000	0.00000	25.9054	6.42652	10.2284	6.42652	1722960000	0.000000299215	3342080
0.00000	0.00000	0.00000	25.1315	6.42658	9.18231	6.42658	1258930000	0.000000223877	4466730
0.00000	0.00000	0.00000	24.3565	6.42677	8.13441	6.42677	919482000	0.000000178468	5603260
0.00000	0.00000	0.00000	23.5785	6.42657	7.08344	6.42657	670736000	0.000000118933	8408110
0.00000	0.00000	0.00000	22.7824	6.42687	6.00673	6.42687	485707000	0.0000000984596	10156500
0.00000	0.00000	0.00000	22.0128	6.42709	4.96608	6.42709	355526000	0.0000000805896	12408600
0.00000	0.00000	0.00000	21.2445	6.42710	3.92772	6.42710	260374000	0.0000000594755	16813700
0.00000	0.00000	0.00000	20.4925	6.42703	2.91151	6.42703	191946000	0.0000000422233	23683600
0.00000	0.00000	0.00000	19.7481	6.42735	1.90453	6.42735	141940000	0.0000000376273	26576400
0.00000	0.00000	0.00000	19.0108	6.42726	0.908314	6.42726	105264000	0.0000000262656	38072600
0.00000	0.00000	0.00000	18.2865	6.42758	-0.0715501	6.42758	78477500	0.0000000242664	41209200
0.00000	0.00000	0.00000	17.5783	6.42751	-1.02849	6.42751	58891000	0.0000000173098	57770600
0.00000	0.00000	0.00000	16.8805	6.42766	-1.97197	6.42766	44380600	0.0000000146367	68321300
0.00000	0.00000	0.00000	16.1967	6.42756	-2.89591	6.42756	33634300	0.0000000102406	97650800
0.00000	0.00000	0.00000	15.5331	6.42764	-3.79310	6.42764	25699900	0.00000000833712	119946000
0.00000	0.00000	0.00000	14.8827	6.42766	-4.67208	6.42766	19743500	0.00000000647551	154428000
0.00000	0.00000	0.00000	14.2463	6.42789	-5.53292	6.42789	15253400	0.00000000611626	163499000
0.00000	0.00000	0.00000	13.6195	6.42780	-6.37985	6.42780	11830300	0.00000000436130	229289000
0.00000	0.00000	0.00000	13.0152	6.42805	-7.19732	6.42805	9259730	0.00000000435979	229369000
0.00000	0.00000	0.00000	12.4361	6.42823	-7.98066	6.42823	7321900	0.00000000434121	230350000
0.00000	0.00000	0.00000	11.8732	6.42800	-8.74078	6.42800	5827790	0.00000000261946	381758000
0.00000	0.00000	0.00000	11.3332	6.42826	-9.47137	6.42826	4682010	0.00000000289133	345861000
0.00000	0.00000	0.00000	10.8144	6.42810	-10.1721	6.42810	3793770	0.00000000189106	528804000
0.00000	0.00000	0.00000	10.3151	6.42815	-10.8471	6.42815	3098610	0.00000000165559	604014000
0.00000	0.00000	0.00000	9.83280	6.42825	-11.4993	6.42825	2548250	0.00000000155747	642066000
0.00000	0.00000	0.00000	9.36894	6.42837	-12.1266	6.42837	2111380	0.00000000156373	639498000
0.00000	0.00000	0.00000	8.92296	6.42830	-12.7292	6.42830	1762130	0.00000000116051	861688000
0.00000	0.00000	0.00000	8.49855	6.42826	-13.3027	6.42826	1483570	0.000000000925784	1080170000
0.00000	0.00000	0.00000	8.09100	6.42853	-13.8544	6.42853	1257620	0.00000000130541	766041000
0.00000	0.00000	0.00000	7.69917	6.42852	-14.3840	6.42852	1072890	0.00000000107610	929286000
0.00000	0.00000	0.00000	7.32160	6.42827	-14.8935	6.42827	920606	0.000000000580573	1722440000
0.00000	0.00000	0.00000	6.96117	6.42846	-15.3813	6.42846	795447	0.000000000702955	1422570000
0.00000	0.00000	0.00000	6.61700	6.42846	-15.8464	6.42846	691847	0.000000000611402	1635590000
