Vload_(V)	ILoad_(I)	RsLoad (ohm)	SunsVoc_Voltage_(V)	SunsVoc_Current_(A)	Model_Voltage_(V)	Model_Current_(I)	Carrier_Density_(cm-3)	Lifetime_(s)	Inverse_Lifetime_(s-1)
2.98358	6.27158	0.00000	65.1699	-0.576252	65.3513	-0.576252	3981090000000000	0.000244047	4071.26
2.99875	6.27441	-0.502478	65.1878	-0.465139	65.3338	-0.465139	3997920000000000	0.000249121	3987.58
5.24460	6.27517	-0.860226	65.0238	0.0216983	65.0168	0.0216983	3845920000000000	0.000258317	3846.65
8.09616	6.27132	-0.887817	64.8324	0.481649	64.6731	0.481649	3674940000000000	0.000266441	3730.76
11.2133	6.26363	4.15759	64.6471	0.888315	64.3457	0.888315	3515810000000000	0.000274160	3626.98
13.8269	6.26539	3.02885	64.4661	1.26059	64.0277	1.26059	3366210000000000	0.000281996	3527.34
16.6484	6.26152	3.96944	64.2844	1.60880	63.7112	1.60880	3221620000000000	0.000290037	3430.60
19.5336	6.25622	4.31760	64.1032	1.93289	63.3982	1.93289	3082850000000000	0.000298276	3336.82
22.4284	6.25575	3.89287	63.9224	2.23301	63.0891	2.23301	2949560000000000	0.000306587	3247.28
25.7234	6.18193	4.53592	63.7429	2.50575	62.7869	2.50575	2822200000000000	0.000314595	3165.47
28.7389	6.18059	4.05625	63.5673	2.76041	62.4915	2.76041	2702210000000000	0.000323066	3083.22
31.6386	6.18331	3.57129	63.3922	2.99228	62.2016	2.99228	2586960000000000	0.000331156	3008.61
34.5879	6.18124	3.10608	63.2242	3.20138	61.9252	3.20138	2480290000000000	0.000339125	2938.55
37.4850	6.17898	2.65038	63.0556	3.39707	61.6505	3.39707	2377130000000000	0.000347147	2871.25
40.3555	6.17312	2.21618	62.8896	3.57642	61.3826	3.57642	2279080000000000	0.000354977	2808.46
43.0252	6.21372	1.51442	62.7278	3.74687	61.1206	3.74687	2186840000000000	0.000363606	2742.29
45.9088	6.19643	1.18326	62.5638	3.90201	60.8602	3.90201	2096640000000000	0.000371431	2684.99
46.8500	6.18473	1.10297	62.4052	4.04700	60.6084	4.04700	2012410000000000	0.000379744	2626.63
47.7970	6.17598	0.996593	62.2420	4.18181	60.3535	4.18181	1928720000000000	0.000387432	2574.93
48.7320	6.16005	0.919150	62.0836	4.30614	60.1071	4.30614	1850300000000000	0.000395192	2524.74
49.6723	6.13383	0.866299	61.9265	4.42266	59.8640	4.42266	1775150000000000	0.000403032	2475.96
50.6132	6.10419	0.805409	61.7699	4.53181	59.6233	4.53181	1702830000000000	0.000410869	2429.05
51.5634	6.05533	0.770616	61.6116	4.63367	59.3826	4.63367	1632260000000000	0.000418333	2386.01
52.5206	6.00239	0.717140	61.4557	4.72899	59.1465	4.72899	1565180000000000	0.000425929	2343.74
53.4488	5.92627	0.683139	61.3026	4.81804	58.9154	4.81804	1501500000000000	0.000433633	2302.35
54.3707	5.83469	0.643710	61.1501	4.90032	58.6873	4.90032	1440280000000000	0.000440911	2264.59
55.3197	5.70880	0.609372	60.9949	4.97696	58.4575	4.97696	1380110000000000	0.000447502	2231.46
56.2218	5.55103	0.580934	60.8483	5.04717	58.2405	5.04717	1325170000000000	0.000454327	2198.15
57.1397	5.34834	0.551986	60.7031	5.11326	58.0266	5.11326	1272600000000000	0.000461199	2165.57
58.0443	5.08914	0.530255	60.5550	5.17703	57.8093	5.17703	1220770000000000	0.000468188	2133.42
58.9236	4.78062	0.507196	60.4053	5.23622	57.5916	5.23622	1170150000000000	0.000474434	2105.50
59.7911	4.39504	0.489144	60.2618	5.29132	57.3830	5.29132	1123250000000000	0.000481015	2076.84
60.6386	3.94189	0.469290	60.1214	5.34258	57.1798	5.34258	1078940000000000	0.000487535	2049.20
61.4570	3.41996	0.452133	59.9813	5.39310	56.9766	5.39310	1036140000000000	0.000495119	2017.93
62.2462	2.82651	0.440521	59.8408	5.43860	56.7750	5.43860	994627000000000	0.000501247	1993.38
62.9762	2.19671	0.442929	59.7017	5.48210	56.5758	5.48210	954917000000000	0.000507745	1967.98
63.6645	1.53589	0.451210	59.5633	5.52272	56.3785	5.52272	916719000000000	0.000513880	1944.58
53.8277	5.89315	0.664432	59.4273	5.56087	56.1853	5.56087	880441000000000	0.000520030	1921.68
65.0129	0.00000	0.00000	59.2862	5.59648	55.9865	5.59648	844038000000000	0.000524831	1904.19
0.00000	0.00000	0.00000	59.1548	5.62992	55.8008	5.62992	811285000000000	0.000530754	1883.02
0.00000	0.00000	0.00000	59.0209	5.66110	55.6130	5.66110	779025000000000	0.000535680	1865.78
0.00000	0.00000	0.00000	58.8909	5.69098	55.4305	5.69098	748712000000000	0.000541327	1846.38
0.00000	0.00000	0.00000	58.7572	5.71946	55.2438	5.71946	718576000000000	0.000546339	1829.51
0.00000	0.00000	0.00000	58.6287	5.74595	55.0645	5.74595	690562000000000	0.000551501	1812.44
0.00000	0.00000	0.00000	58.4979	5.77094	54.8830	5.77094	663011000000000	0.000555931	1798.05
0.00000	0.00000	0.00000	58.3700	5.79465	54.7057	5.79465	636969000000000	0.000560643	1782.99
0.00000	0.00000	0.00000	58.2425	5.81695	54.5294	5.81695	611856000000000	0.000564952	1769.44
0.00000	0.00000	0.00000	58.1149	5.83848	54.3532	5.83848	587558000000000	0.000569488	1755.39
0.00000	0.00000	0.00000	57.9923	5.85785	54.1846	5.85785	564997000000000	0.000573265	1743.87
0.00000	0.00000	0.00000	57.8661	5.87676	54.0116	5.87676	542550000000000	0.000576858	1733.04
0.00000	0.00000	0.00000	57.7453	5.89445	53.8459	5.89445	521769000000000	0.000580776	1721.38
0.00000	0.00000	0.00000	57.6216	5.91118	53.6770	5.91118	501194000000000	0.000583766	1712.60
0.00000	0.00000	0.00000	57.4999	5.92694	53.5111	5.92694	481624000000000	0.000586633	1704.26
0.00000	0.00000	0.00000	57.3788	5.94213	53.3462	5.94213	462811000000000	0.000589713	1695.39
0.00000	0.00000	0.00000	57.2571	5.95675	53.1807	5.95675	444534000000000	0.000592722	1686.80
0.00000	0.00000	0.00000	57.1375	5.97016	53.0186	5.97016	427183000000000	0.000594922	1680.59
0.00000	0.00000	0.00000	57.0152	5.98354	52.8530	5.98354	410059000000000	0.000597616	1673.04
0.00000	0.00000	0.00000	56.8950	5.99600	52.6904	5.99600	393797000000000	0.000599850	1666.83
0.00000	0.00000	0.00000	56.7756	6.00754	52.5294	6.00754	378195000000000	0.000601263	1662.93
0.00000	0.00000	0.00000	56.6564	6.01896	52.3686	6.01896	363165000000000	0.000603473	1656.86
0.00000	0.00000	0.00000	56.5411	6.02975	52.2132	6.02975	349121000000000	0.000606011	1649.93
0.00000	0.00000	0.00000	56.4221	6.03986	52.0534	6.03986	335134000000000	0.000607118	1646.94
0.00000	0.00000	0.00000	56.3051	6.04980	51.8962	6.04980	321859000000000	0.000609205	1641.31
0.00000	0.00000	0.00000	56.1890	6.05906	51.7405	6.05906	309146000000000	0.000610636	1637.48
0.00000	0.00000	0.00000	56.0715	6.06768	51.5834	6.06768	296733000000000	0.000610889	1636.81
0.00000	0.00000	0.00000	55.9578	6.07665	51.4308	6.07665	285143000000000	0.000614047	1628.41
0.00000	0.00000	0.00000	55.8397	6.08426	51.2735	6.08426	273526000000000	0.000612947	1631.34
0.00000	0.00000	0.00000	55.7257	6.09250	51.1208	6.09250	262716000000000	0.000615813	1623.76
0.00000	0.00000	0.00000	55.6135	6.09902	50.9718	6.09902	252454000000000	0.000614131	1628.21
0.00000	0.00000	0.00000	55.4990	6.10654	50.8189	6.10654	242351000000000	0.000616410	1622.20
0.00000	0.00000	0.00000	55.3864	6.11294	50.6693	6.11294	232776000000000	0.000615946	1623.43
0.00000	0.00000	0.00000	55.2725	6.11966	50.5177	6.11966	223434000000000	0.000617368	1619.70
0.00000	0.00000	0.00000	55.1589	6.12519	50.3673	6.12519	214450000000000	0.000614933	1626.12
0.00000	0.00000	0.00000	55.0476	6.13152	50.2192	6.13152	205973000000000	0.000617304	1619.88
0.00000	0.00000	0.00000	54.9337	6.13642	50.0688	6.13642	197609000000000	0.000613718	1629.35
0.00000	0.00000	0.00000	54.8245	6.14175	49.9241	6.14175	189887000000000	0.000613960	1628.71
0.00000	0.00000	0.00000	54.7101	6.14762	49.7721	6.14762	182089000000000	0.000616633	1621.66
0.00000	0.00000	0.00000	54.5976	6.15143	49.6242	6.15143	174706000000000	0.000610363	1638.32
0.00000	0.00000	0.00000	54.4846	6.15653	49.4747	6.15653	167576000000000	0.000611408	1635.52
0.00000	0.00000	0.00000	54.3696	6.16155	49.3226	6.16155	160591000000000	0.000612667	1632.16
0.00000	0.00000	0.00000	54.2591	6.16500	49.1774	6.16500	154130000000000	0.000607051	1647.27
0.00000	0.00000	0.00000	54.1483	6.16967	49.0308	6.16967	147895000000000	0.000609193	1641.48
0.00000	0.00000	0.00000	54.0336	6.17401	48.8795	6.17401	141690000000000	0.000609609	1640.36
0.00000	0.00000	0.00000	53.9234	6.17711	48.7349	6.17711	135957000000000	0.000604142	1655.21
0.00000	0.00000	0.00000	53.8114	6.18014	48.5880	6.18014	130349000000000	0.000598424	1671.03
0.00000	0.00000	0.00000	53.6995	6.18400	48.4405	6.18400	124965000000000	0.000598994	1669.44
0.00000	0.00000	0.00000	53.5892	6.18789	48.2951	6.18789	119864000000000	0.000601195	1663.33
0.00000	0.00000	0.00000	53.4751	6.19038	48.1459	6.19038	114790000000000	0.000593385	1685.23
0.00000	0.00000	0.00000	53.3658	6.19296	48.0027	6.19296	110120000000000	0.000587934	1700.85
0.00000	0.00000	0.00000	53.2555	6.19591	47.8581	6.19591	105593000000000	0.000585748	1707.20
0.00000	0.00000	0.00000	53.1435	6.19946	47.7105	6.19946	101171000000000	0.000588862	1698.17
0.00000	0.00000	0.00000	53.0318	6.20224	47.5640	6.20224	96937300000000	0.000586809	1704.12
0.00000	0.00000	0.00000	52.9189	6.20419	47.4167	6.20419	92832300000000	0.000578280	1729.25
0.00000	0.00000	0.00000	52.8057	6.20608	47.2691	6.20608	88880300000000	0.000569602	1755.60
0.00000	0.00000	0.00000	52.6931	6.20835	47.1218	6.20835	85108700000000	0.000564991	1769.93
0.00000	0.00000	0.00000	52.5768	6.21128	46.9691	6.21128	81371900000000	0.000566408	1765.50
0.00000	0.00000	0.00000	52.4647	6.21372	46.8223	6.21372	77920100000000	0.000565281	1769.02
0.00000	0.00000	0.00000	52.3494	6.21587	46.6716	6.21587	74515300000000	0.000561506	1780.92
0.00000	0.00000	0.00000	52.2312	6.21761	46.5175	6.21761	71174300000000	0.000553623	1806.27
0.00000	0.00000	0.00000	52.1161	6.21903	46.3676	6.21903	68058500000000	0.000543662	1839.37
0.00000	0.00000	0.00000	51.9977	6.22087	46.2132	6.22087	64991300000000	0.000537987	1858.77
0.00000	0.00000	0.00000	51.8810	6.22271	46.0609	6.22271	62098900000000	0.000533417	1874.70
0.00000	0.00000	0.00000	51.7631	6.22484	45.9067	6.22484	59300700000000	0.000532590	1877.61
0.00000	0.00000	0.00000	51.6346	6.22677	45.7391	6.22677	56392900000000	0.000528235	1893.09
0.00000	0.00000	0.00000	51.5072	6.22884	45.5727	6.22884	53645700000000	0.000526913	1897.84
0.00000	0.00000	0.00000	51.3849	6.23038	45.4133	6.23038	51128400000000	0.000520960	1919.53
0.00000	0.00000	0.00000	51.2618	6.23147	45.2534	6.23147	48713300000000	0.000509835	1961.41
0.00000	0.00000	0.00000	51.1337	6.23248	45.0870	6.23248	46316000000000	0.000497235	2011.12
0.00000	0.00000	0.00000	51.0037	6.23342	44.9183	6.23342	44001600000000	0.000484057	2065.87
0.00000	0.00000	0.00000	50.8779	6.23457	44.7547	6.23457	41869600000000	0.000474849	2105.93
0.00000	0.00000	0.00000	50.7501	6.23604	44.5883	6.23604	39806900000000	0.000470114	2127.14
0.00000	0.00000	0.00000	50.6230	6.23726	44.4229	6.23726	37852700000000	0.000462982	2159.91
0.00000	0.00000	0.00000	50.4898	6.23871	44.2495	6.23871	35906900000000	0.000458577	2180.65
0.00000	0.00000	0.00000	50.3584	6.23999	44.0786	6.23999	34083300000000	0.000452952	2207.74
0.00000	0.00000	0.00000	50.2198	6.24124	43.8984	6.24124	32257700000000	0.000446335	2240.47
0.00000	0.00000	0.00000	50.0821	6.24254	43.7192	6.24254	30539100000000	0.000441478	2265.12
0.00000	0.00000	0.00000	49.9352	6.24347	43.5286	6.24347	28804800000000	0.000430188	2324.56
0.00000	0.00000	0.00000	49.7875	6.24429	43.3369	6.24429	27158100000000	0.000417752	2393.76
0.00000	0.00000	0.00000	49.6342	6.24485	43.1383	6.24485	25547400000000	0.000401197	2492.54
0.00000	0.00000	0.00000	49.4809	6.24570	42.9394	6.24570	24030400000000	0.000389755	2565.71
0.00000	0.00000	0.00000	49.3179	6.24625	42.7284	6.24625	22515800000000	0.000373102	2680.23
0.00000	0.00000	0.00000	49.1540	6.24710	42.5158	6.24710	21087400000000	0.000361593	2765.54
0.00000	0.00000	0.00000	48.9794	6.24758	42.2898	6.24758	19663800000000	0.000343851	2908.24
0.00000	0.00000	0.00000	48.8009	6.24828	42.0584	6.24828	18306400000000	0.000329719	3032.89
0.00000	0.00000	0.00000	48.6164	6.24914	41.8191	6.24914	17001000000000	0.000318036	3144.29
0.00000	0.00000	0.00000	48.4227	6.25005	41.5680	6.25005	15730000000000	0.000306628	3261.29
0.00000	0.00000	0.00000	48.2202	6.25077	41.3056	6.25077	14501100000000	0.000292553	3418.18
0.00000	0.00000	0.00000	48.0111	6.25176	41.0343	6.25176	13332200000000	0.000282379	3541.35
0.00000	0.00000	0.00000	47.7939	6.25283	40.7525	6.25283	12217000000000	0.000273501	3656.30
0.00000	0.00000	0.00000	47.5693	6.25371	40.4614	6.25371	11161300000000	0.000262218	3813.62
0.00000	0.00000	0.00000	47.3327	6.25432	40.1551	6.25432	10147100000000	0.000246763	4052.47
0.00000	0.00000	0.00000	47.0924	6.25507	39.8436	6.25507	9210350000000	0.000234207	4269.72
0.00000	0.00000	0.00000	46.8412	6.25598	39.5180	6.25598	8323250000000	0.000223935	4465.58
0.00000	0.00000	0.00000	46.5802	6.25655	39.1801	6.25655	7491380000000	0.000209253	4778.90
0.00000	0.00000	0.00000	46.3070	6.25708	38.8265	6.25708	6709360000000	0.000194230	5148.52
0.00000	0.00000	0.00000	46.0204	6.25754	38.4557	6.25754	5976250000000	0.000178648	5597.60
0.00000	0.00000	0.00000	45.7144	6.25797	38.0598	6.25797	5281240000000	0.000162848	6140.69
0.00000	0.00000	0.00000	45.3913	6.25854	37.6415	6.25854	4634660000000	0.000149161	6704.15
0.00000	0.00000	0.00000	45.0442	6.25875	37.1928	6.25875	4027860000000	0.000131748	7590.23
0.00000	0.00000	0.00000	44.6776	6.25921	36.7185	6.25921	3472800000000	0.000117807	8488.45
0.00000	0.00000	0.00000	44.2914	6.25954	36.2190	6.25954	2970380000000	0.000103569	9655.35
0.00000	0.00000	0.00000	43.8887	6.25994	35.6981	6.25994	2523660000000	0.0000909992	10989.1
0.00000	0.00000	0.00000	43.4727	6.26028	35.1601	6.26028	2132540000000	0.0000792215	12622.8
0.00000	0.00000	0.00000	43.0350	6.26054	34.5941	6.26054	1786160000000	0.0000679301	14721.0
0.00000	0.00000	0.00000	42.5758	6.26092	34.0002	6.26092	1483050000000	0.0000583787	17129.5
0.00000	0.00000	0.00000	42.0803	6.26109	33.3596	6.26109	1213320000000	0.0000485554	20595.0
0.00000	0.00000	0.00000	41.5622	6.26148	32.6895	6.26148	983588000000	0.0000408573	24475.5
0.00000	0.00000	0.00000	41.0216	6.26184	31.9904	6.26184	790109000000	0.0000340274	29388.1
0.00000	0.00000	0.00000	40.4500	6.26203	31.2514	6.26203	626731000000	0.0000275501	36297.5
0.00000	0.00000	0.00000	39.8573	6.26236	30.4849	6.26236	492889000000	0.0000224362	44570.8
0.00000	0.00000	0.00000	39.2457	6.26281	29.6938	6.26281	384670000000	0.0000184091	54321.0
0.00000	0.00000	0.00000	38.6197	6.26294	28.8846	6.26294	298463000000	0.0000144894	69016.1
0.00000	0.00000	0.00000	37.9751	6.26341	28.0508	6.26341	229831000000	0.0000118078	84689.9
0.00000	0.00000	0.00000	37.3218	6.26361	27.2062	6.26361	176362000000	0.00000928969	107646
0.00000	0.00000	0.00000	36.6609	6.26397	26.3515	6.26397	134911000000	0.00000744426	134332
0.00000	0.00000	0.00000	35.9927	6.26417	25.4875	6.26417	102894000000	0.00000582713	171611
0.00000	0.00000	0.00000	35.3128	6.26415	24.6089	6.26415	78107500000	0.00000441106	226703
0.00000	0.00000	0.00000	34.6302	6.26471	23.7256	6.26471	59224700000	0.00000361797	276398
0.00000	0.00000	0.00000	33.9477	6.26511	22.8428	6.26511	44909000000	0.00000291135	343483
0.00000	0.00000	0.00000	33.2549	6.26532	21.9470	6.26532	33911300000	0.00000227472	439615
0.00000	0.00000	0.00000	32.5466	6.26555	21.0311	6.26555	25446500000	0.00000177226	564253
0.00000	0.00000	0.00000	31.8419	6.26588	20.1197	6.26588	19123100000	0.00000140717	710645
0.00000	0.00000	0.00000	31.1358	6.26591	19.2070	6.26591	14362500000	0.00000106247	941207
0.00000	0.00000	0.00000	30.4247	6.26602	18.2876	6.26602	10764900000	0.000000811789	1231850
0.00000	0.00000	0.00000	29.7146	6.26649	17.3689	6.26649	8072200000	0.000000665923	1501670
0.00000	0.00000	0.00000	29.0041	6.26657	16.4504	6.26657	6051720000	0.000000507118	1971930
0.00000	0.00000	0.00000	28.2916	6.26688	15.5288	6.26688	4533370000	0.000000404664	2471180
0.00000	0.00000	0.00000	27.5835	6.26730	14.6127	6.26730	3402150000	0.000000333516	2998360
0.00000	0.00000	0.00000	26.8815	6.26715	13.7056	6.26715	2559390000	0.000000242447	4124610
0.00000	0.00000	0.00000	26.1773	6.26746	12.7947	6.26746	1923770000	0.000000196113	5099100
0.00000	0.00000	0.00000	25.4739	6.26791	11.8846	6.26791	1446430000	0.000000165171	6054350
0.00000	0.00000	0.00000	24.7746	6.26801	10.9804	6.26801	1089330000	0.000000127866	7820710
0.00000	0.00000	0.00000	24.0693	6.26808	10.0686	6.26808	818419000	0.0000000980203	10202000
0.00000	0.00000	0.00000	23.3527	6.26811	9.14226	6.26811	612076000	0.0000000739093	13530100
0.00000	0.00000	0.00000	22.6324	6.26839	8.21046	6.26839	457053000	0.0000000601174	16634100
0.00000	0.00000	0.00000	21.9309	6.26854	7.30339	6.26854	343919000	0.0000000474615	21069700
0.00000	0.00000	0.00000	21.2341	6.26869	6.40228	6.26869	259274000	0.0000000376309	26573900
0.00000	0.00000	0.00000	20.5458	6.26880	5.51235	6.26880	196143000	0.0000000295601	33829300
0.00000	0.00000	0.00000	19.8629	6.26927	4.62842	6.26927	148705000	0.0000000270443	36976400
0.00000	0.00000	0.00000	19.1817	6.26914	3.74814	6.26914	112817000	0.0000000193814	51596000
0.00000	0.00000	0.00000	18.5053	6.26932	2.87335	6.26932	85759200	0.0000000159411	62731100
0.00000	0.00000	0.00000	17.8401	6.26936	2.01333	6.26936	65486100	0.0000000123677	80855800
0.00000	0.00000	0.00000	17.1823	6.26941	1.16289	6.26941	50156300	0.00000000968989	103200000
0.00000	0.00000	0.00000	16.5277	6.26960	0.316189	6.26960	38464800	0.00000000815269	122659000
0.00000	0.00000	0.00000	15.8849	6.26972	-0.515079	6.26972	29640000	0.00000000669134	149447000
0.00000	0.00000	0.00000	15.2509	6.26986	-1.33504	6.26986	22921400	0.00000000558071	179189000
0.00000	0.00000	0.00000	14.6204	6.26994	-2.15022	6.26994	17751500	0.00000000452773	220861000
0.00000	0.00000	0.00000	13.9936	6.27014	-2.96104	6.27014	13767900	0.00000000401564	249027000
0.00000	0.00000	0.00000	13.3762	6.27040	-3.75982	6.27040	10719200	0.00000000380413	262872000
0.00000	0.00000	0.00000	12.7800	6.27018	-4.52996	6.27018	8417510	0.00000000251739	397237000
0.00000	0.00000	0.00000	12.2000	6.27044	-5.28057	6.27044	6653400	0.00000000244972	408210000
0.00000	0.00000	0.00000	11.6352	6.27026	-6.01015	6.27026	5291760	0.00000000167614	596609000
0.00000	0.00000	0.00000	11.0870	6.27036	-6.71909	6.27036	4237170	0.00000000145129	689040000
0.00000	0.00000	0.00000	10.5568	6.27044	-7.40471	6.27044	3417610	0.00000000125833	794702000
0.00000	0.00000	0.00000	10.0358	6.27044	-8.07824	6.27044	2766820	0.00000000101239	987760000
0.00000	0.00000	0.00000	9.53226	6.27076	-8.73008	6.27076	2255910	0.00000000114545	873022000
0.00000	0.00000	0.00000	9.04679	6.27081	-9.35781	6.27081	1852860	0.00000000100117	998832000
0.00000	0.00000	0.00000	8.58118	6.27048	-9.95879	6.27048	1534110	0.000000000586842	1704040000
0.00000	0.00000	0.00000	8.13659	6.27076	-10.5344	6.27076	1281080	0.000000000656123	1524100000
0.00000	0.00000	0.00000	7.70838	6.27093	-11.0884	6.27093	1076900	0.000000000689320	1450700000
0.00000	0.00000	0.00000	7.29842	6.27095	-11.6185	6.27095	911994	0.000000000610274	1638610000
0.00000	0.00000	0.00000	6.91133	6.27086	-12.1186	6.27086	779532	0.000000000454547	2199990000
0.00000	0.00000	0.00000	6.53939	6.27066	-12.5988	6.27066	670415	0.000000000306122	3266670000
0.00000	0.00000	0.00000	6.19064	6.27108	-13.0509	6.27108	582019	0.000000000489501	2042900000
0.00000	0.00000	0.00000	5.85623	6.27093	-13.4828	6.27093	508224	0.000000000328883	3040590000
0.00000	0.00000	0.00000	5.54032	6.27088	-13.8910	6.27088	447126	0.000000000265983	3759640000
0.00000	0.00000	0.00000	5.23682	6.27110	-14.2841	6.27110	395358	0.000000000347382	2878670000
0.00000	0.00000	0.00000	4.94725	6.27102	-14.6581	6.27102	351563	0.000000000262027	3816390000
0.00000	0.00000	0.00000	4.66111	6.27121	-15.0287	6.27121	313055	0.000000000354290	2822540000
0.00000	0.00000	0.00000	4.40388	6.27096	-15.3604	6.27096	282051	0.000000000190906	5238180000
0.00000	0.00000	0.00000	4.16078	6.27105	-15.6750	6.27105	255578	0.000000000203344	4917770000
0.00000	0.00000	0.00000	3.92389	6.27104	-15.9812	6.27104	232173	0.000000000179867	5559670000
0.00000	0.00000	0.00000	3.70741	6.27126	-16.2617	6.27126	212664	0.000000000278049	3596490000
0.00000	0.00000	0.00000	3.50049	6.27118	-16.5290	6.27118	195552	0.000000000201924	4952370000
0.00000	0.00000	0.00000	3.30619	6.27131	-16.7806	6.27131	180738	0.000000000279745	3574680000
