Vload_(V)	ILoad_(I)	RsLoad (ohm)	SunsVoc_Voltage_(V)	SunsVoc_Current_(A)	Model_Voltage_(V)	Model_Current_(I)	Carrier_Density_(cm-3)	Lifetime_(s)	Inverse_Lifetime_(s-1)
4.33979	9.25979	0.00000	38.7321	-0.871625	39.0348	-0.871625	468246000000000	0.0000316056	31639.6
4.35344	9.26735	-0.481849	38.7096	-0.701098	38.9531	-0.701098	461698000000000	0.0000316972	31548.2
4.41674	9.26438	-0.488807	38.6106	-0.191197	38.6770	-0.191197	433910000000000	0.0000313966	31850.3
5.11619	9.26712	-0.564166	38.4815	0.406700	38.3402	0.406700	400126000000000	0.0000309074	32354.4
6.90668	9.26059	-0.757846	38.3424	1.01918	37.9882	1.01918	366557000000000	0.0000304189	32874.1
8.72075	9.23993	1.83336	38.2003	1.60242	37.6432	1.60242	335108000000000	0.0000299271	33414.3
10.7444	9.22785	1.76232	38.0570	2.14897	37.3096	2.14897	306048000000000	0.0000294326	33975.7
12.5680	9.23254	1.51539	37.9153	2.65301	36.9924	2.65301	279748000000000	0.0000289559	34535.2
14.3765	9.22165	1.42781	37.7741	3.11831	36.6890	3.11831	255749000000000	0.0000284774	35115.4
16.1820	9.21214	1.29845	37.6351	3.54601	36.4008	3.54601	234094000000000	0.0000280173	35692.1
17.9961	9.20827	1.12379	37.4992	3.93613	36.1288	3.93613	214674000000000	0.0000275758	36263.6
19.7992	9.20520	0.943711	37.3662	4.29603	35.8701	4.29603	197204000000000	0.0000271685	36807.3
21.6079	9.19753	0.783772	37.2337	4.62893	35.6211	4.62893	181186000000000	0.0000267560	37374.7
23.4059	9.19769	0.587532	37.1026	4.93919	35.3815	4.93919	166610000000000	0.0000263704	37921.2
24.0126	9.19080	0.549533	36.9735	5.22187	35.1535	5.22187	153387000000000	0.0000259771	38495.4
24.6114	9.19440	0.470330	36.8476	5.48219	34.9363	5.48219	141486000000000	0.0000256129	39042.8
25.2110	9.19508	0.402243	36.7221	5.72511	34.7256	5.72511	130541000000000	0.0000252555	39595.3
25.8138	9.18475	0.374548	36.5987	5.94913	34.5236	5.94913	120592000000000	0.0000249095	40145.3
26.4097	9.17942	0.326491	36.4771	6.15724	34.3288	6.15724	111525000000000	0.0000245818	40680.5
27.0106	9.16030	0.314066	36.3581	6.34877	34.1425	6.34877	103310000000000	0.0000242692	41204.4
27.6109	9.12315	0.324249	36.2422	6.52448	33.9647	6.52448	95883700000000	0.0000239717	41715.9
28.2149	9.07308	0.329470	36.1262	6.68917	33.7907	6.68917	88982900000000	0.0000236717	42244.6
28.8028	8.99942	0.340245	36.0123	6.84286	33.6226	6.84286	82685900000000	0.0000233952	42743.8
29.3884	8.90227	0.346877	35.8980	6.98506	33.4581	6.98506	76813300000000	0.0000230923	43304.5
29.9724	8.77463	0.350642	35.7871	7.11686	33.3006	7.11686	71514200000000	0.0000228215	43818.4
30.5466	8.61592	0.351132	35.6749	7.24323	33.1436	7.24323	66517700000000	0.0000225572	44331.7
31.1217	8.40889	0.352350	35.5639	7.35932	32.9916	7.35932	61921500000000	0.0000222813	44880.7
31.6977	8.15702	0.350250	35.4551	7.46659	32.8447	7.46659	57721700000000	0.0000220126	45428.5
32.2657	7.84922	0.348377	35.3469	7.56722	32.7007	7.56722	53824800000000	0.0000217468	45983.7
32.8253	7.48954	0.346040	35.2414	7.66155	32.5616	7.66155	50278600000000	0.0000215130	46483.5
33.3877	7.06433	0.344026	35.1372	7.75027	32.4258	7.75027	47004200000000	0.0000212940	46961.6
33.9264	6.59040	0.341202	35.0340	7.83248	32.2933	7.83248	43971200000000	0.0000210673	47467.0
34.4758	6.05234	0.337052	34.9314	7.90899	32.1634	7.90899	41149700000000	0.0000208321	48002.7
35.0030	5.46967	0.334262	34.8324	7.98067	32.0387	7.98067	38597900000000	0.0000206354	48460.4
35.5228	4.83455	0.331564	34.7329	8.05050	31.9142	8.05050	36192000000000	0.0000204664	48860.5
36.0338	4.16001	0.328050	34.6352	8.11393	31.7938	8.11393	33977000000000	0.0000202774	49315.9
36.5189	3.46032	0.329322	34.5381	8.17369	31.6752	8.17369	31908300000000	0.0000200906	49774.6
36.9984	2.71806	0.334926	34.4410	8.23023	31.5577	8.23023	29964600000000	0.0000199028	50244.1
37.4447	1.98788	0.343053	34.3460	8.28281	31.4437	8.28281	28176900000000	0.0000197226	50703.2
30.3482	8.67533	0.351057	34.2511	8.33172	31.3312	8.33172	26499200000000	0.0000195260	51213.8
38.5738	0.00000	0.00000	34.1561	8.37923	31.2190	8.37923	24918800000000	0.0000193521	51674.0
0.00000	0.00000	0.00000	34.0618	8.42296	31.1088	8.42296	23443000000000	0.0000191574	52199.0
0.00000	0.00000	0.00000	33.9684	8.46459	31.0002	8.46459	22067200000000	0.0000189771	52695.0
0.00000	0.00000	0.00000	33.8751	8.50361	30.8927	8.50361	20773400000000	0.0000187864	53230.0
0.00000	0.00000	0.00000	33.7835	8.54099	30.7873	8.54099	19575700000000	0.0000186237	53695.0
0.00000	0.00000	0.00000	33.6920	8.57567	30.6832	8.57567	18450200000000	0.0000184427	54222.0
0.00000	0.00000	0.00000	33.6006	8.60879	30.5796	8.60879	17389100000000	0.0000182664	54745.2
0.00000	0.00000	0.00000	33.5117	8.63975	30.4793	8.63975	16415800000000	0.0000181053	55232.5
0.00000	0.00000	0.00000	33.4232	8.66895	30.3800	8.66895	15501600000000	0.0000179418	55735.7
0.00000	0.00000	0.00000	33.3352	8.69679	30.2817	8.69679	14642000000000	0.0000177850	56227.1
0.00000	0.00000	0.00000	33.2477	8.72206	30.1848	8.72206	13835200000000	0.0000175947	56835.4
0.00000	0.00000	0.00000	33.1601	8.74733	30.0878	8.74733	13071900000000	0.0000174435	57328.1
0.00000	0.00000	0.00000	33.0722	8.77089	29.9910	8.77089	12347700000000	0.0000172714	57899.1
0.00000	0.00000	0.00000	32.9863	8.79254	29.8970	8.79254	11679200000000	0.0000170930	58503.4
0.00000	0.00000	0.00000	32.8997	8.81366	29.8024	8.81366	11042000000000	0.0000169254	59082.8
0.00000	0.00000	0.00000	32.8142	8.83358	29.7094	8.83358	10446500000000	0.0000167612	59661.7
0.00000	0.00000	0.00000	32.7291	8.85199	29.6173	8.85199	9885880000000	0.0000165778	60321.5
0.00000	0.00000	0.00000	32.6440	8.86989	29.5254	8.86989	9355600000000	0.0000164090	60942.2
0.00000	0.00000	0.00000	32.5612	8.88721	29.4360	8.88721	8866790000000	0.0000162744	61446.1
0.00000	0.00000	0.00000	32.4773	8.90336	29.3459	8.90336	8397190000000	0.0000161108	62070.3
0.00000	0.00000	0.00000	32.3936	8.91896	29.2562	8.91896	7953790000000	0.0000159585	62662.4
0.00000	0.00000	0.00000	32.3104	8.93361	29.1672	8.93361	7535940000000	0.0000157993	63293.9
0.00000	0.00000	0.00000	32.2267	8.94703	29.0783	8.94703	7138140000000	0.0000156076	64071.2
0.00000	0.00000	0.00000	32.1431	8.95988	28.9897	8.95988	6761480000000	0.0000154172	64862.6
0.00000	0.00000	0.00000	32.0606	8.97347	28.9019	8.97347	6409290000000	0.0000153079	65325.8
0.00000	0.00000	0.00000	31.9779	8.98478	28.8146	8.98478	6074600000000	0.0000151051	66202.7
0.00000	0.00000	0.00000	31.8918	8.99654	28.7239	8.99654	5744950000000	0.0000149238	67006.9
0.00000	0.00000	0.00000	31.8085	9.00772	28.6361	9.00772	5442580000000	0.0000147655	67725.6
0.00000	0.00000	0.00000	31.7265	9.01714	28.5503	9.01714	5160920000000	0.0000145445	68754.7
0.00000	0.00000	0.00000	31.6427	9.02805	28.4621	9.02805	4887920000000	0.0000144239	69329.3
0.00000	0.00000	0.00000	31.5609	9.03654	28.3768	9.03654	4635440000000	0.0000141992	70426.6
0.00000	0.00000	0.00000	31.4798	9.04661	28.2916	9.04661	4397870000000	0.0000141075	70884.4
0.00000	0.00000	0.00000	31.3999	9.05395	28.2086	9.05395	4175780000000	0.0000138726	72084.3
0.00000	0.00000	0.00000	31.3183	9.06278	28.1234	9.06278	3960750000000	0.0000137483	72736.4
0.00000	0.00000	0.00000	31.2378	9.07067	28.0396	9.07067	3759330000000	0.0000135932	73566.4
0.00000	0.00000	0.00000	31.1561	9.07756	27.9549	9.07756	3565210000000	0.0000133791	74743.2
0.00000	0.00000	0.00000	31.0744	9.08624	27.8696	9.08624	3381150000000	0.0000133225	75060.8
0.00000	0.00000	0.00000	30.9936	9.09176	27.7863	9.09176	3208550000000	0.0000130577	76583.3
0.00000	0.00000	0.00000	30.9113	9.09843	27.7012	9.09843	3041860000000	0.0000128914	77571.0
0.00000	0.00000	0.00000	30.8299	9.10602	27.6166	9.10602	2885390000000	0.0000128317	77932.1
0.00000	0.00000	0.00000	30.7495	9.11076	27.5340	9.11076	2738800000000	0.0000125677	79569.3
0.00000	0.00000	0.00000	30.6698	9.11641	27.4518	9.11641	2600860000000	0.0000124049	80613.2
0.00000	0.00000	0.00000	30.5893	9.12284	27.3685	9.12284	2468610000000	0.0000123267	81125.0
0.00000	0.00000	0.00000	30.5092	9.12797	27.2861	9.12797	2343580000000	0.0000121580	82250.4
0.00000	0.00000	0.00000	30.4288	9.13150	27.2039	9.13150	2224530000000	0.0000118573	84335.9
0.00000	0.00000	0.00000	30.3476	9.13639	27.1204	9.13639	2110340000000	0.0000116945	85510.4
0.00000	0.00000	0.00000	30.2656	9.14264	27.0358	9.14264	2001140000000	0.0000116817	85604.1
0.00000	0.00000	0.00000	30.1846	9.14641	26.9529	9.14641	1898640000000	0.0000114512	87326.8
0.00000	0.00000	0.00000	30.1031	9.14957	26.8698	9.14957	1800950000000	0.0000111738	89494.8
0.00000	0.00000	0.00000	30.0213	9.15353	26.7861	9.15353	1707900000000	0.0000109917	90977.4
0.00000	0.00000	0.00000	29.9398	9.15865	26.7022	9.15865	1619940000000	0.0000109533	91296.8
0.00000	0.00000	0.00000	29.8576	9.16239	26.6181	9.16239	1535830000000	0.0000107835	92734.3
0.00000	0.00000	0.00000	29.7750	9.16588	26.5338	9.16588	1455700000000	0.0000106004	94335.8
0.00000	0.00000	0.00000	29.6929	9.16856	26.4501	9.16856	1380180000000	0.0000103455	96660.6
0.00000	0.00000	0.00000	29.6095	9.17117	26.3653	9.17117	1307550000000	0.0000100903	99105.5
0.00000	0.00000	0.00000	29.5261	9.17518	26.2800	9.17518	1238680000000	0.0000100109	99890.8
0.00000	0.00000	0.00000	29.4412	9.17885	26.1932	9.17885	1172300000000	0.00000990473	100962
0.00000	0.00000	0.00000	29.3561	9.18223	26.1064	9.18223	1109380000000	0.00000978189	102230
0.00000	0.00000	0.00000	29.2709	9.18455	26.0198	9.18455	1049710000000	0.00000954107	104810
0.00000	0.00000	0.00000	29.1851	9.18658	25.9328	9.18658	992908000000	0.00000927429	107825
0.00000	0.00000	0.00000	29.0981	9.18894	25.8443	9.18894	938419000000	0.00000905744	110406
0.00000	0.00000	0.00000	29.0121	9.19178	25.7568	9.19178	887512000000	0.00000892436	112053
0.00000	0.00000	0.00000	28.9246	9.19464	25.6677	9.19464	838540000000	0.00000880137	113619
0.00000	0.00000	0.00000	28.8365	9.19771	25.5779	9.19771	791943000000	0.00000872405	114626
0.00000	0.00000	0.00000	28.7498	9.20045	25.4897	9.20045	748656000000	0.00000862774	115905
0.00000	0.00000	0.00000	28.6616	9.20224	25.4003	9.20224	707001000000	0.00000840136	119028
0.00000	0.00000	0.00000	28.5724	9.20401	25.3099	9.20401	667267000000	0.00000818092	122236
0.00000	0.00000	0.00000	28.4830	9.20527	25.2195	9.20527	629686000000	0.00000789783	126617
0.00000	0.00000	0.00000	28.3926	9.20658	25.1280	9.20658	593819000000	0.00000763086	131047
0.00000	0.00000	0.00000	28.3018	9.20853	25.0359	9.20853	559852000000	0.00000746928	133882
0.00000	0.00000	0.00000	28.2113	9.21003	24.9443	9.21003	527912000000	0.00000725494	137837
0.00000	0.00000	0.00000	28.1167	9.21213	24.8483	9.21213	496504000000	0.00000712343	140382
0.00000	0.00000	0.00000	28.0198	9.21422	24.7500	9.21422	466242000000	0.00000699706	142917
0.00000	0.00000	0.00000	27.9233	9.21622	24.6522	9.21622	437964000000	0.00000687301	145497
0.00000	0.00000	0.00000	27.8287	9.21798	24.5564	9.21798	411894000000	0.00000673751	148423
0.00000	0.00000	0.00000	27.7345	9.21972	24.4610	9.21972	387491000000	0.00000661319	151213
0.00000	0.00000	0.00000	27.6416	9.22112	24.3669	9.22112	364807000000	0.00000645162	155000
0.00000	0.00000	0.00000	27.5481	9.22226	24.2725	9.22226	343357000000	0.00000625638	159837
0.00000	0.00000	0.00000	27.4532	9.22337	24.1765	9.22337	322850000000	0.00000606140	164978
0.00000	0.00000	0.00000	27.3569	9.22414	24.0793	9.22414	303297000000	0.00000581723	171903
0.00000	0.00000	0.00000	27.2615	9.22509	23.9830	9.22509	285104000000	0.00000561769	178009
0.00000	0.00000	0.00000	27.1644	9.22569	23.8850	9.22569	267687000000	0.00000536747	186307
0.00000	0.00000	0.00000	27.0670	9.22688	23.7865	9.22688	251300000000	0.00000522104	191533
0.00000	0.00000	0.00000	26.9679	9.22761	23.6866	9.22761	235666000000	0.00000500847	199662
0.00000	0.00000	0.00000	26.8680	9.22895	23.5855	9.22895	220871000000	0.00000489752	204185
0.00000	0.00000	0.00000	26.7666	9.23034	23.4829	9.23034	206805000000	0.00000480197	208248
0.00000	0.00000	0.00000	26.6642	9.23152	23.3795	9.23152	193524000000	0.00000468101	213629
0.00000	0.00000	0.00000	26.5597	9.23224	23.2740	9.23224	180832000000	0.00000448773	222830
0.00000	0.00000	0.00000	26.4530	9.23403	23.1660	9.23403	168742000000	0.00000447848	223290
0.00000	0.00000	0.00000	26.3458	9.23497	23.0578	9.23497	157408000000	0.00000433719	230564
0.00000	0.00000	0.00000	26.2376	9.23633	22.9484	9.23633	146740000000	0.00000427724	233796
0.00000	0.00000	0.00000	26.1278	9.23707	22.8376	9.23707	136646000000	0.00000411224	243177
0.00000	0.00000	0.00000	26.0164	9.23767	22.7253	9.23767	127125000000	0.00000392955	254482
0.00000	0.00000	0.00000	25.9048	9.23861	22.6126	9.23861	118245000000	0.00000381669	262007
0.00000	0.00000	0.00000	25.7910	9.23941	22.4978	9.23941	109835000000	0.00000368438	271416
0.00000	0.00000	0.00000	25.6749	9.24016	22.3807	9.24016	101863000000	0.00000354895	281774
0.00000	0.00000	0.00000	25.5583	9.24089	22.2630	9.24089	94442800000	0.00000341690	292663
0.00000	0.00000	0.00000	25.4386	9.24123	22.1425	9.24123	87388800000	0.00000321916	310640
0.00000	0.00000	0.00000	25.3187	9.24174	22.0215	9.24174	80846300000	0.00000306332	326444
0.00000	0.00000	0.00000	25.1977	9.24235	21.8996	9.24235	74746000000	0.00000293136	341138
0.00000	0.00000	0.00000	25.0753	9.24237	21.7764	9.24237	69038700000	0.00000270928	369102
0.00000	0.00000	0.00000	24.9523	9.24301	21.6524	9.24301	63745500000	0.00000259727	385020
0.00000	0.00000	0.00000	24.8266	9.24323	21.5257	9.24323	58752300000	0.00000242583	412230
0.00000	0.00000	0.00000	24.7000	9.24368	21.3982	9.24368	54121500000	0.00000229744	435268
0.00000	0.00000	0.00000	24.5699	9.24412	21.2670	9.24412	49740600000	0.00000217108	460601
0.00000	0.00000	0.00000	24.4393	9.24481	21.1353	9.24481	45699900000	0.00000208578	479437
0.00000	0.00000	0.00000	24.3053	9.24483	21.0004	9.24483	41894900000	0.00000191488	522226
0.00000	0.00000	0.00000	24.1709	9.24527	20.8651	9.24527	38398600000	0.00000180852	552937
0.00000	0.00000	0.00000	24.0344	9.24584	20.7275	9.24584	35144500000	0.00000172269	580487
0.00000	0.00000	0.00000	23.8980	9.24605	20.5900	9.24605	32167300000	0.00000160094	624634
0.00000	0.00000	0.00000	23.7594	9.24643	20.4505	9.24643	29402300000	0.00000150483	664525
0.00000	0.00000	0.00000	23.6176	9.24690	20.3076	9.24690	26818900000	0.00000142306	702712
0.00000	0.00000	0.00000	23.4754	9.24728	20.1643	9.24728	24455600000	0.00000133696	747963
0.00000	0.00000	0.00000	23.3315	9.24818	20.0191	9.24818	22275700000	0.00000131154	762460
0.00000	0.00000	0.00000	23.1865	9.24792	19.8733	9.24792	20275900000	0.00000116844	855839
0.00000	0.00000	0.00000	23.0386	9.24867	19.7241	9.24867	18420500000	0.00000113282	882751
0.00000	0.00000	0.00000	22.8895	9.24904	19.5739	9.24904	16722400000	0.00000106363	940179
0.00000	0.00000	0.00000	22.7368	9.24900	19.4203	9.24900	15145700000	0.000000959611	1042090
0.00000	0.00000	0.00000	22.5819	9.25012	19.2640	9.25012	13697800000	0.000000968900	1032100
0.00000	0.00000	0.00000	22.4255	9.25009	19.1066	9.25009	12376400000	0.000000872601	1146000
0.00000	0.00000	0.00000	22.2666	9.25061	18.9464	9.25061	11163900000	0.000000831297	1202940
0.00000	0.00000	0.00000	22.1063	9.25121	18.7849	9.25121	10061500000	0.000000801539	1247600
0.00000	0.00000	0.00000	21.9423	9.25138	18.6197	9.25138	9046180000	0.000000735077	1360400
0.00000	0.00000	0.00000	21.7755	9.25162	18.4517	9.25162	8118150000	0.000000679200	1472320
0.00000	0.00000	0.00000	21.6051	9.25192	18.2802	9.25192	7268900000	0.000000631730	1582960
0.00000	0.00000	0.00000	21.4332	9.25207	18.1070	9.25207	6501740000	0.000000575841	1736590
0.00000	0.00000	0.00000	21.2588	9.25281	17.9313	9.25281	5806310000	0.000000568450	1759170
0.00000	0.00000	0.00000	21.0799	9.25279	17.7512	9.25279	5170230000	0.000000504665	1981510
0.00000	0.00000	0.00000	20.8984	9.25367	17.5682	9.25367	4595880000	0.000000513334	1948050
0.00000	0.00000	0.00000	20.7114	9.25327	17.3801	9.25327	4070820000	0.000000426837	2342810
0.00000	0.00000	0.00000	20.5176	9.25394	17.1848	9.25394	3589970000	0.000000419737	2382440
0.00000	0.00000	0.00000	20.3224	9.25423	16.9882	9.25423	3162920000	0.000000388682	2572800
0.00000	0.00000	0.00000	20.1262	9.25457	16.7906	9.25457	2784910000	0.000000364995	2739760
0.00000	0.00000	0.00000	19.9252	9.25482	16.5882	9.25482	2444450000	0.000000335951	2976630
0.00000	0.00000	0.00000	19.7218	9.25491	16.3835	9.25491	2142330000	0.000000300143	3331750
0.00000	0.00000	0.00000	19.5140	9.25516	16.1742	9.25516	1872220000	0.000000276604	3615270
0.00000	0.00000	0.00000	19.3036	9.25515	15.9624	9.25515	1633300000	0.000000240762	4153480
0.00000	0.00000	0.00000	19.0895	9.25596	15.7467	9.25596	1421540000	0.000000253858	3939220
0.00000	0.00000	0.00000	18.8693	9.25614	15.5250	9.25614	1232310000	0.000000230845	4331910
0.00000	0.00000	0.00000	18.6465	9.25624	15.3006	9.25624	1066460000	0.000000205097	4875740
0.00000	0.00000	0.00000	18.4205	9.25589	15.0733	9.25589	921042000	0.000000161382	6196460
0.00000	0.00000	0.00000	18.1899	9.25658	14.8410	9.25658	793093000	0.000000169022	5916400
0.00000	0.00000	0.00000	17.9529	9.25655	14.6024	9.25655	680037000	0.000000143518	6967770
0.00000	0.00000	0.00000	17.7132	9.25699	14.3610	9.25699	582128000	0.000000142244	7030170
0.00000	0.00000	0.00000	17.4702	9.25685	14.1165	9.25685	497234000	0.000000115429	8663340
0.00000	0.00000	0.00000	17.2216	9.25706	13.8662	9.25706	423175000	0.000000105790	9452650
0.00000	0.00000	0.00000	16.9668	9.25701	13.6097	9.25701	358711000	0.0000000883175	11322800
0.00000	0.00000	0.00000	16.7035	9.25729	13.3446	9.25729	302377000	0.0000000825766	12110000
0.00000	0.00000	0.00000	16.4387	9.25736	13.0781	9.25736	254663000	0.0000000716531	13956100
0.00000	0.00000	0.00000	16.1728	9.25769	12.8102	9.25769	214306000	0.0000000696386	14359800
0.00000	0.00000	0.00000	15.9029	9.25749	12.5387	9.25749	179892000	0.0000000533874	18731000
0.00000	0.00000	0.00000	15.6290	9.25786	12.2629	9.25786	150608000	0.0000000531932	18799400
0.00000	0.00000	0.00000	15.3521	9.25783	11.9842	9.25783	125845000	0.0000000439698	22742900
0.00000	0.00000	0.00000	15.0702	9.25792	11.7004	9.25792	104812000	0.0000000382660	26132900
0.00000	0.00000	0.00000	14.7856	9.25781	11.4140	9.25781	87143400	0.0000000301241	33196000
0.00000	0.00000	0.00000	14.5000	9.25832	11.1263	9.25832	72406900	0.0000000336042	29758200
0.00000	0.00000	0.00000	14.2102	9.25832	10.8346	9.25832	59996300	0.0000000278445	35913800
0.00000	0.00000	0.00000	13.9168	9.25814	10.5394	9.25814	49599200	0.0000000205286	48712500
0.00000	0.00000	0.00000	13.6240	9.25833	10.2446	9.25833	41020000	0.0000000191744	52152800
0.00000	0.00000	0.00000	13.3278	9.25852	9.94636	9.25852	33847500	0.0000000181731	55026500
0.00000	0.00000	0.00000	13.0262	9.25821	9.64293	9.25821	27833500	0.0000000120572	82937900
0.00000	0.00000	0.00000	12.7232	9.25857	9.33779	9.25857	22866400	0.0000000128059	78089200
0.00000	0.00000	0.00000	12.4244	9.25873	9.03699	9.25873	18837400	0.0000000121144	82546400
0.00000	0.00000	0.00000	12.1252	9.25893	8.73578	9.25893	15514300	0.0000000122858	81395100
0.00000	0.00000	0.00000	11.8291	9.25880	8.43783	9.25880	12803400	0.00000000884628	113042000
0.00000	0.00000	0.00000	11.5332	9.25897	8.13988	9.25897	10566900	0.00000000879638	113683000
0.00000	0.00000	0.00000	11.2381	9.25898	7.84293	9.25898	8726350	0.00000000735843	135899000
0.00000	0.00000	0.00000	10.9461	9.25885	7.54906	9.25885	7220460	0.00000000526878	189797000
0.00000	0.00000	0.00000	10.6572	9.25881	7.25823	9.25881	5986290	0.00000000418057	239202000
0.00000	0.00000	0.00000	10.3686	9.25926	6.96763	9.25926	4964390	0.00000000644132	155248000
0.00000	0.00000	0.00000	10.0853	9.25888	6.68258	9.25888	4130870	0.00000000308350	324306000
0.00000	0.00000	0.00000	9.80558	9.25913	6.40096	9.25913	3445440	0.00000000354975	281710000
0.00000	0.00000	0.00000	9.52788	9.25904	6.12147	9.25904	2877450	0.00000000263110	380070000
0.00000	0.00000	0.00000	9.24936	9.25911	5.84111	9.25911	2401820	0.00000000239854	416920000
0.00000	0.00000	0.00000	8.97508	9.25914	5.56503	9.25914	2010350	0.00000000210456	475159000
0.00000	0.00000	0.00000	8.70986	9.25912	5.29808	9.25912	1692590	0.00000000171663	582535000
0.00000	0.00000	0.00000	8.44795	9.25916	5.03445	9.25916	1428120	0.00000000154478	647342000
