Vload_(V)	ILoad_(I)	RsLoad (ohm)	SunsVoc_Voltage_(V)	SunsVoc_Current_(A)	Model_Voltage_(V)	Model_Current_(I)	Carrier_Density_(cm-3)	Lifetime_(s)	Inverse_Lifetime_(s-1)
3.04076	6.28248	0.00000	65.1267	-0.429331	65.2686	-0.429331	3940670000000000	0.000246465	4031.59
3.07658	6.29056	-0.543697	65.6921	-0.564016	65.8644	-0.564016	4499340000000000	0.000275870	3591.29
5.73418	6.28677	-0.970460	65.6213	-0.251719	65.6990	-0.251719	4425780000000000	0.000284329	3484.53
8.57186	6.29103	-1.41671	65.4598	0.168977	65.4065	0.168977	4261890000000000	0.000292642	3386.99
11.3756	6.28526	-1.86974	65.2785	0.597461	65.0850	0.597461	4084330000000000	0.000301588	3288.09
14.1297	6.28623	-2.30662	65.0924	0.988918	64.7639	0.988918	3908890000000000	0.000309977	3200.68
16.9160	6.28155	0.620592	64.9101	1.35255	64.4497	1.35255	3743500000000000	0.000318758	3113.91
19.8004	6.28027	1.65776	64.7298	1.69053	64.1409	1.69053	3586100000000000	0.000327831	3029.00
22.7015	6.27933	1.79530	64.5474	2.00767	63.8316	2.00767	3432710000000000	0.000337089	2947.01
25.9645	6.23130	4.24938	64.3636	2.30200	63.5240	2.30200	3283970000000000	0.000346329	2869.53
28.9810	6.23095	3.76884	64.1840	2.56890	63.2264	2.56890	3144060000000000	0.000355404	2797.29
31.8814	6.22845	3.32668	64.0062	2.81523	62.9345	2.81523	3010720000000000	0.000364510	2728.36
34.7907	6.23012	2.84485	63.8286	3.04156	62.6465	3.04156	2882380000000000	0.000373343	2664.71
37.6958	6.22679	2.40769	63.6544	3.25280	62.3650	3.25280	2761160000000000	0.000382578	2601.19
40.6000	6.22076	1.99110	63.4781	3.44937	62.0836	3.44937	2642920000000000	0.000391603	2542.01
43.3352	6.24709	1.27621	63.3087	3.62888	61.8142	3.62888	2533450000000000	0.000400776	2484.50
46.2020	6.22433	1.06183	63.1373	3.79641	61.5447	3.79641	2426630000000000	0.000409745	2430.77
47.1381	6.21513	0.982736	62.9691	3.95122	61.2819	3.95122	2325590000000000	0.000418761	2379.02
48.0562	6.19690	0.948906	62.8015	4.09626	61.0217	4.09626	2228450000000000	0.000427892	2328.79
48.9916	6.17572	0.902578	62.6333	4.23278	60.7624	4.23278	2134460000000000	0.000437142	2280.03
49.9416	6.15422	0.834895	62.4690	4.35770	60.5110	4.35770	2045940000000000	0.000446205	2234.17
50.8768	6.12097	0.791487	62.3070	4.47116	60.2657	4.47116	1961680000000000	0.000454627	2193.22
51.8213	6.07960	0.744997	62.1484	4.57878	60.0255	4.57878	1882050000000000	0.000463727	2150.56
52.7638	6.02378	0.707470	61.9859	4.67794	59.7831	4.67794	1803270000000000	0.000471774	2114.26
53.7122	5.95103	0.670923	61.8279	4.77100	59.5476	4.77100	1729350000000000	0.000480290	2077.11
54.6330	5.86311	0.633328	61.6707	4.85849	59.3145	4.85849	1658350000000000	0.000488868	2040.98
55.5665	5.74671	0.599693	61.5164	4.93912	59.0870	4.93912	1591000000000000	0.000497166	2007.20
56.4740	5.60133	0.569216	61.3601	5.01360	58.8592	5.01360	1525180000000000	0.000504572	1978.02
57.3919	5.40927	0.544495	61.2079	5.08284	58.6379	5.08284	1463250000000000	0.000512026	1949.47
58.3008	5.17069	0.518716	61.0577	5.14882	58.4198	5.14882	1404170000000000	0.000519949	1919.99
59.1752	4.88036	0.497331	60.9044	5.21113	58.1989	5.21113	1345980000000000	0.000527388	1893.13
60.0564	4.51742	0.476436	60.7510	5.26818	57.9798	5.26818	1289740000000000	0.000533777	1870.68
60.9138	4.08346	0.459098	60.6025	5.32281	57.7673	5.32281	1237190000000000	0.000541179	1845.28
61.7492	3.57742	0.441981	60.4576	5.37514	57.5597	5.37514	1187610000000000	0.000549448	1817.67
62.5309	3.01703	0.426413	60.3095	5.42408	57.3494	5.42408	1138680000000000	0.000556848	1793.67
63.2800	2.39799	0.430045	60.1590	5.46916	57.1376	5.46916	1090650000000000	0.000562924	1774.46
63.9762	1.74672	0.430872	60.0171	5.51090	56.9377	5.51090	1046940000000000	0.000569594	1753.82
54.1976	5.90994	0.647797	59.8765	5.54988	56.7404	5.54988	1005030000000000	0.000575882	1734.79
65.4173	0.00000	0.00000	59.7366	5.58691	56.5448	5.58691	964758000000000	0.000582237	1715.97
0.00000	0.00000	0.00000	59.5964	5.62170	56.3495	5.62170	925729000000000	0.000588101	1698.97
0.00000	0.00000	0.00000	59.4591	5.65469	56.1585	5.65469	888809000000000	0.000594317	1681.29
0.00000	0.00000	0.00000	59.3192	5.68594	55.9648	5.68594	852441000000000	0.000599862	1665.85
0.00000	0.00000	0.00000	59.1827	5.71551	55.7761	5.71551	818165000000000	0.000605760	1649.71
0.00000	0.00000	0.00000	59.0421	5.74334	55.5828	5.74334	784050000000000	0.000610467	1637.07
0.00000	0.00000	0.00000	58.9085	5.76914	55.3993	5.76914	752755000000000	0.000615567	1623.58
0.00000	0.00000	0.00000	58.7714	5.79407	55.2115	5.79407	721719000000000	0.000620305	1611.24
0.00000	0.00000	0.00000	58.6407	5.81732	55.0326	5.81732	693146000000000	0.000625531	1597.84
0.00000	0.00000	0.00000	58.5056	5.83931	54.8486	5.83931	664601000000000	0.000629530	1587.75
0.00000	0.00000	0.00000	58.3749	5.86040	54.6706	5.86040	637942000000000	0.000634462	1575.46
0.00000	0.00000	0.00000	58.2423	5.88079	54.4903	5.88079	611823000000000	0.000639375	1563.41
0.00000	0.00000	0.00000	58.1105	5.89989	54.3116	5.89989	586748000000000	0.000643776	1552.76
0.00000	0.00000	0.00000	57.9793	5.91736	54.1344	5.91736	562649000000000	0.000646871	1545.38
0.00000	0.00000	0.00000	57.8512	5.93394	53.9617	5.93394	539947000000000	0.000650319	1537.22
0.00000	0.00000	0.00000	57.7265	5.94979	53.7935	5.94979	518598000000000	0.000654346	1527.80
0.00000	0.00000	0.00000	57.5981	5.96498	53.6209	5.96498	497366000000000	0.000657584	1520.31
0.00000	0.00000	0.00000	57.4731	5.97922	53.4530	5.97922	477412000000000	0.000660833	1512.86
0.00000	0.00000	0.00000	57.3477	5.99226	53.2853	5.99226	458084000000000	0.000662573	1508.92
0.00000	0.00000	0.00000	57.2281	6.00487	53.1251	6.00487	440278000000000	0.000665754	1501.73
0.00000	0.00000	0.00000	57.1045	6.01709	52.9599	6.01709	422499000000000	0.000668275	1496.09
0.00000	0.00000	0.00000	56.9819	6.02860	52.7963	6.02860	405488000000000	0.000670445	1491.27
0.00000	0.00000	0.00000	56.8629	6.03910	52.6380	6.03910	389549000000000	0.000671894	1488.08
0.00000	0.00000	0.00000	56.7429	6.04902	52.4787	6.04902	374022000000000	0.000672522	1486.71
0.00000	0.00000	0.00000	56.6198	6.05922	52.3150	6.05922	358655000000000	0.000674342	1482.71
0.00000	0.00000	0.00000	56.5027	6.06917	52.1591	6.06917	344552000000000	0.000678053	1474.61
0.00000	0.00000	0.00000	56.3848	6.07723	52.0035	6.07723	330847000000000	0.000676657	1477.67
0.00000	0.00000	0.00000	56.2714	6.08630	51.8527	6.08630	318118000000000	0.000680700	1468.91
0.00000	0.00000	0.00000	56.1517	6.09394	51.6950	6.09394	305157000000000	0.000679438	1471.65
0.00000	0.00000	0.00000	56.0393	6.10185	51.5461	6.10185	293405000000000	0.000681851	1466.45
0.00000	0.00000	0.00000	55.9258	6.10874	51.3967	6.10874	281955000000000	0.000681237	1467.79
0.00000	0.00000	0.00000	55.8111	6.11601	51.2452	6.11601	270775000000000	0.000682789	1464.46
0.00000	0.00000	0.00000	55.7010	6.12257	51.1001	6.12257	260424000000000	0.000683633	1462.66
0.00000	0.00000	0.00000	55.5860	6.12928	50.9487	6.12928	249998000000000	0.000684990	1459.77
0.00000	0.00000	0.00000	55.4745	6.13438	50.8027	6.13438	240236000000000	0.000680942	1468.46
0.00000	0.00000	0.00000	55.3683	6.14103	50.6624	6.14103	231264000000000	0.000686312	1456.97
0.00000	0.00000	0.00000	55.2569	6.14583	50.5167	6.14583	222174000000000	0.000682485	1465.15
0.00000	0.00000	0.00000	55.1487	6.15149	50.3744	6.15149	213659000000000	0.000684683	1460.45
0.00000	0.00000	0.00000	55.0371	6.15707	50.2278	6.15707	205185000000000	0.000686812	1455.93
0.00000	0.00000	0.00000	54.9282	6.16056	50.0863	6.16056	197214000000000	0.000679001	1472.69
0.00000	0.00000	0.00000	54.8232	6.16597	49.9481	6.16597	189793000000000	0.000683816	1462.32
0.00000	0.00000	0.00000	54.7102	6.17096	49.8000	6.17096	182097000000000	0.000685443	1458.85
0.00000	0.00000	0.00000	54.6030	6.17411	49.6608	6.17411	175058000000000	0.000678120	1474.62
0.00000	0.00000	0.00000	54.4948	6.17853	49.5192	6.17853	168207000000000	0.000679264	1472.14
0.00000	0.00000	0.00000	54.3833	6.18326	49.3731	6.18326	161405000000000	0.000682830	1464.45
0.00000	0.00000	0.00000	54.2754	6.18629	49.2329	6.18629	155067000000000	0.000676684	1477.75
0.00000	0.00000	0.00000	54.1662	6.18892	49.0915	6.18892	148889000000000	0.000668035	1496.89
0.00000	0.00000	0.00000	54.0569	6.19324	48.9483	6.19324	142929000000000	0.000672351	1487.28
0.00000	0.00000	0.00000	53.9518	6.19729	48.8108	6.19729	137411000000000	0.000677084	1476.89
0.00000	0.00000	0.00000	53.8419	6.19995	48.6683	6.19995	131854000000000	0.000670628	1491.11
0.00000	0.00000	0.00000	53.7340	6.20220	48.5287	6.20220	126605000000000	0.000662027	1510.49
0.00000	0.00000	0.00000	53.6259	6.20550	48.3879	6.20550	121540000000000	0.000662735	1508.87
0.00000	0.00000	0.00000	53.5162	6.20913	48.2447	6.20913	116596000000000	0.000667215	1498.74
0.00000	0.00000	0.00000	53.4103	6.21206	48.1070	6.21206	112003000000000	0.000667662	1497.74
0.00000	0.00000	0.00000	53.3013	6.21394	47.9661	6.21394	107451000000000	0.000658085	1519.54
0.00000	0.00000	0.00000	53.1925	6.21572	47.8256	6.21572	103083000000000	0.000648158	1542.82
0.00000	0.00000	0.00000	53.0874	6.21822	47.6892	6.21822	99024900000000	0.000646818	1546.01
0.00000	0.00000	0.00000	52.9799	6.22063	47.5497	6.22063	95030800000000	0.000644938	1550.52
0.00000	0.00000	0.00000	52.8719	6.22369	47.4090	6.22369	91169800000000	0.000650910	1536.30
0.00000	0.00000	0.00000	52.7673	6.22603	47.2733	6.22603	87575200000000	0.000651243	1535.51
0.00000	0.00000	0.00000	52.6520	6.22788	47.1243	6.22788	83769300000000	0.000643960	1552.88
0.00000	0.00000	0.00000	52.5461	6.22915	46.9878	6.22915	80411700000000	0.000632898	1580.02
0.00000	0.00000	0.00000	52.4362	6.23072	46.8459	6.23072	77063500000000	0.000624924	1600.18
0.00000	0.00000	0.00000	52.3249	6.23311	46.7016	6.23311	73811500000000	0.000627627	1593.29
0.00000	0.00000	0.00000	52.2177	6.23525	46.5626	6.23525	70802400000000	0.000629311	1589.03
0.00000	0.00000	0.00000	52.1058	6.23752	46.4175	6.23752	67787300000000	0.000632885	1580.06
0.00000	0.00000	0.00000	51.9946	6.23926	46.2737	6.23926	64912500000000	0.000630497	1586.04
0.00000	0.00000	0.00000	51.8837	6.24063	46.1307	6.24063	62164100000000	0.000623471	1603.92
0.00000	0.00000	0.00000	51.7703	6.24165	45.9847	6.24165	59469300000000	0.000611338	1635.75
0.00000	0.00000	0.00000	51.6587	6.24271	45.8410	6.24271	56927500000000	0.000600824	1664.38
0.00000	0.00000	0.00000	51.5458	6.24357	45.6959	6.24357	54463900000000	0.000587555	1701.96
0.00000	0.00000	0.00000	51.4259	6.24498	45.5413	6.24498	51960200000000	0.000581559	1719.51
0.00000	0.00000	0.00000	51.3064	6.24659	45.3869	6.24659	49575400000000	0.000579874	1724.51
0.00000	0.00000	0.00000	51.1867	6.24814	45.2323	6.24814	47294000000000	0.000578135	1729.70
0.00000	0.00000	0.00000	51.0768	6.24946	45.0905	6.24946	45288800000000	0.000575774	1736.79
0.00000	0.00000	0.00000	50.9606	6.25113	44.9403	6.25113	43260200000000	0.000579126	1726.74
0.00000	0.00000	0.00000	50.8381	6.25277	44.7819	6.25277	41215100000000	0.000582347	1717.19
0.00000	0.00000	0.00000	50.7202	6.25353	44.6304	6.25353	39337500000000	0.000570388	1753.19
0.00000	0.00000	0.00000	50.6015	6.25443	44.4777	6.25443	37531900000000	0.000561637	1780.51
0.00000	0.00000	0.00000	50.4823	6.25522	44.3245	6.25522	35799900000000	0.000551188	1814.26
0.00000	0.00000	0.00000	50.3628	6.25618	44.1706	6.25618	34141800000000	0.000544827	1835.44
0.00000	0.00000	0.00000	50.2389	6.25654	44.0117	6.25654	32502500000000	0.000525947	1901.33
0.00000	0.00000	0.00000	50.1195	6.25737	43.8582	6.25737	30996300000000	0.000518040	1930.35
0.00000	0.00000	0.00000	49.9927	6.25789	43.6954	6.25789	29470800000000	0.000502983	1988.14
0.00000	0.00000	0.00000	49.8697	6.25854	43.5374	6.25854	28062500000000	0.000492036	2032.37
0.00000	0.00000	0.00000	49.7380	6.25948	43.3679	6.25948	26626900000000	0.000485855	2058.23
0.00000	0.00000	0.00000	49.6034	6.26033	43.1949	6.26033	25235300000000	0.000478178	2091.27
0.00000	0.00000	0.00000	49.4697	6.26092	43.0232	6.26092	23923200000000	0.000465735	2147.14
0.00000	0.00000	0.00000	49.3351	6.26201	42.8498	6.26201	22670600000000	0.000464862	2151.17
0.00000	0.00000	0.00000	49.1979	6.26261	42.6738	6.26261	21460900000000	0.000453383	2205.64
0.00000	0.00000	0.00000	49.0552	6.26363	42.4901	6.26363	20269600000000	0.000451382	2215.42
0.00000	0.00000	0.00000	48.9121	6.26470	42.3058	6.26470	19140800000000	0.000451775	2213.49
0.00000	0.00000	0.00000	48.7627	6.26550	42.1138	6.26550	18028600000000	0.000445613	2244.10
0.00000	0.00000	0.00000	48.6136	6.26615	41.9223	6.26615	16982300000000	0.000436406	2291.45
0.00000	0.00000	0.00000	48.4584	6.26670	41.7231	6.26670	15956900000000	0.000424452	2355.98
0.00000	0.00000	0.00000	48.3046	6.26729	41.5255	6.26729	15000900000000	0.000414600	2411.96
0.00000	0.00000	0.00000	48.1440	6.26793	41.3194	6.26793	14064100000000	0.000405568	2465.68
0.00000	0.00000	0.00000	47.9834	6.26806	41.1137	6.26806	13184800000000	0.000383781	2605.65
0.00000	0.00000	0.00000	47.8161	6.26856	40.8990	6.26856	12326600000000	0.000371613	2690.97
0.00000	0.00000	0.00000	47.6436	6.26900	40.6777	6.26900	11500000000000	0.000358064	2792.80
0.00000	0.00000	0.00000	47.4671	6.26933	40.4515	6.26933	10711200000000	0.000341911	2924.74
0.00000	0.00000	0.00000	47.2775	6.26961	40.2085	6.26961	9923660000000	0.000323734	3088.96
0.00000	0.00000	0.00000	47.0844	6.26986	39.9611	6.26986	9180800000000	0.000305327	3275.18
0.00000	0.00000	0.00000	46.8855	6.27011	39.7063	6.27011	8473420000000	0.000287531	3477.88
0.00000	0.00000	0.00000	46.6812	6.27049	39.4443	6.27049	7803160000000	0.000273118	3661.43
0.00000	0.00000	0.00000	46.4692	6.27083	39.1725	6.27083	7163200000000	0.000258002	3875.94
0.00000	0.00000	0.00000	46.2531	6.27099	38.8958	6.27099	6565010000000	0.000239791	4170.30
0.00000	0.00000	0.00000	46.0283	6.27127	38.6077	6.27127	5995190000000	0.000224524	4453.87
0.00000	0.00000	0.00000	45.7933	6.27164	38.3065	6.27164	5452210000000	0.000211180	4735.30
0.00000	0.00000	0.00000	45.5472	6.27172	37.9914	6.27172	4936120000000	0.000192480	5195.35
0.00000	0.00000	0.00000	45.2905	6.27200	37.6625	6.27200	4449600000000	0.000178178	5612.37
0.00000	0.00000	0.00000	45.0204	6.27246	37.3162	6.27246	3989320000000	0.000167153	5982.53
0.00000	0.00000	0.00000	44.7381	6.27244	36.9549	6.27244	3558800000000	0.000148789	6720.93
0.00000	0.00000	0.00000	44.4464	6.27286	36.5809	6.27286	3162610000000	0.000137918	7250.67
0.00000	0.00000	0.00000	44.1411	6.27346	36.1894	6.27346	2795110000000	0.000130111	7685.73
0.00000	0.00000	0.00000	43.8263	6.27367	35.7862	6.27367	2460750000000	0.000117283	8526.40
0.00000	0.00000	0.00000	43.5025	6.27387	35.3715	6.27387	2158430000000	0.000105185	9507.07
0.00000	0.00000	0.00000	43.1651	6.27423	34.9391	6.27423	1882780000000	0.0000957226	10446.9
0.00000	0.00000	0.00000	42.8167	6.27447	34.4928	6.27447	1635010000000	0.0000857055	11667.9
0.00000	0.00000	0.00000	42.4537	6.27495	34.0274	6.27495	1411450000000	0.0000786164	12720.0
0.00000	0.00000	0.00000	42.0774	6.27518	33.5455	6.27518	1211910000000	0.0000696615	14355.1
0.00000	0.00000	0.00000	41.6865	6.27545	33.0447	6.27545	1034410000000	0.0000617133	16204.0
0.00000	0.00000	0.00000	41.2874	6.27601	32.5329	6.27601	879932000000	0.0000570774	17520.1
0.00000	0.00000	0.00000	40.8861	6.27605	32.0191	6.27605	747869000000	0.0000487849	20498.1
0.00000	0.00000	0.00000	40.4774	6.27648	31.4954	6.27648	633738000000	0.0000443393	22553.3
0.00000	0.00000	0.00000	40.0546	6.27656	30.9539	6.27656	533925000000	0.0000378698	26406.2
0.00000	0.00000	0.00000	39.6250	6.27697	30.4034	6.27697	448602000000	0.0000341381	29292.7
0.00000	0.00000	0.00000	39.1783	6.27704	29.8314	6.27704	374311000000	0.0000288951	34608.0
0.00000	0.00000	0.00000	38.7147	6.27745	29.2373	6.27745	310188000000	0.0000258855	38631.7
0.00000	0.00000	0.00000	38.2307	6.27749	28.6176	6.27749	254929000000	0.0000214464	46627.8
0.00000	0.00000	0.00000	37.7313	6.27793	27.9775	6.27793	208203000000	0.0000192133	52047.4
0.00000	0.00000	0.00000	37.2211	6.27825	27.3238	6.27825	169301000000	0.0000167952	59540.8
0.00000	0.00000	0.00000	36.7027	6.27829	26.6601	6.27829	137215000000	0.0000137530	72711.2
0.00000	0.00000	0.00000	36.1691	6.27848	25.9766	6.27848	110521000000	0.0000115922	86265.2
0.00000	0.00000	0.00000	35.6241	6.27911	25.2778	6.27911	88610800000	0.0000110301	90661.2
0.00000	0.00000	0.00000	35.0684	6.27905	24.5664	6.27905	70736600000	0.00000865078	115596
0.00000	0.00000	0.00000	34.5070	6.27902	23.8478	6.27902	56338000000	0.00000682557	146508
0.00000	0.00000	0.00000	33.9400	6.27934	23.1213	6.27934	44767800000	0.00000597333	167411
0.00000	0.00000	0.00000	33.3580	6.27950	22.3759	6.27950	35359400000	0.00000497145	201149
0.00000	0.00000	0.00000	32.7599	6.27971	21.6097	6.27971	27744800000	0.00000419635	238302
0.00000	0.00000	0.00000	32.1421	6.27992	20.8184	6.27992	21598000000	0.00000354380	282183
0.00000	0.00000	0.00000	31.5220	6.27998	20.0244	6.27998	16796900000	0.00000281274	355525
0.00000	0.00000	0.00000	30.8915	6.27996	19.2171	6.27996	13008000000	0.00000216678	461514
0.00000	0.00000	0.00000	30.2484	6.28043	18.3928	6.28043	10022500000	0.00000204964	487890
0.00000	0.00000	0.00000	29.5904	6.28046	17.5503	6.28046	7675690000	0.00000159253	627932
0.00000	0.00000	0.00000	28.9153	6.28045	16.6859	6.28045	5837750000	0.00000120726	828323
0.00000	0.00000	0.00000	28.2179	6.28062	15.7927	6.28062	4400030000	0.000000990741	1009350
0.00000	0.00000	0.00000	27.5065	6.28101	14.8810	6.28101	3297550000	0.000000942206	1061340
0.00000	0.00000	0.00000	26.7875	6.28092	13.9606	6.28092	2463710000	0.000000662034	1510500
0.00000	0.00000	0.00000	26.0568	6.28080	13.0252	6.28080	1832000000	0.000000456675	2189740
0.00000	0.00000	0.00000	25.3260	6.28111	12.0889	6.28111	1362240000	0.000000415829	2404830
0.00000	0.00000	0.00000	24.5973	6.28111	11.1559	6.28111	1013770000	0.000000309485	3231170
0.00000	0.00000	0.00000	23.8688	6.28122	10.2228	6.28122	754505000	0.000000249923	4001240
0.00000	0.00000	0.00000	23.1306	6.28128	9.27760	6.28128	559365000	0.000000195248	5121700
0.00000	0.00000	0.00000	22.3910	6.28135	8.33046	6.28135	414448000	0.000000153853	6499700
0.00000	0.00000	0.00000	21.6744	6.28143	7.41263	6.28143	309940000	0.000000123699	8084170
0.00000	0.00000	0.00000	20.9617	6.28154	6.49986	6.28154	232162000	0.000000103226	9687460
0.00000	0.00000	0.00000	20.2606	6.28165	5.60186	6.28165	174718000	0.0000000884459	11306300
0.00000	0.00000	0.00000	19.5678	6.28180	4.71444	6.28180	131933000	0.0000000816260	12251000
0.00000	0.00000	0.00000	18.8808	6.28175	3.83504	6.28175	99862500	0.0000000569642	17554900
0.00000	0.00000	0.00000	18.2048	6.28168	2.96956	6.28168	75921600	0.0000000398131	25117400
0.00000	0.00000	0.00000	17.5453	6.28175	2.12495	6.28175	58108500	0.0000000331472	30168400
0.00000	0.00000	0.00000	16.8970	6.28189	1.29452	6.28189	44677800	0.0000000316628	31582800
0.00000	0.00000	0.00000	16.2579	6.28192	0.476130	6.28192	34479600	0.0000000256803	38940400
0.00000	0.00000	0.00000	15.6347	6.28191	-0.321827	6.28191	26781100	0.0000000196958	50772300
0.00000	0.00000	0.00000	15.0281	6.28194	-1.09865	6.28194	20941900	0.0000000162172	61663100
0.00000	0.00000	0.00000	14.4305	6.28216	-1.86440	6.28216	16435800	0.0000000211158	47357800
0.00000	0.00000	0.00000	13.8444	6.28212	-2.61475	6.28212	12959700	0.0000000150021	66657300
0.00000	0.00000	0.00000	13.2673	6.28204	-3.35349	6.28204	10256000	0.00000000974958	102569000
0.00000	0.00000	0.00000	12.7088	6.28224	-4.06908	6.28224	8178050	0.0000000142682	70086100
0.00000	0.00000	0.00000	12.1697	6.28212	-4.75912	6.28212	6572250	0.00000000760808	131439000
0.00000	0.00000	0.00000	11.6444	6.28212	-5.43177	6.28212	5311500	0.00000000614863	162638000
0.00000	0.00000	0.00000	11.1356	6.28211	-6.08319	6.28211	4321470	0.00000000481207	207811000
0.00000	0.00000	0.00000	10.6433	6.28201	-6.71321	6.28201	3539630	0.00000000311194	321343000
0.00000	0.00000	0.00000	10.1668	6.28216	-7.32378	6.28216	2917780	0.00000000374866	266762000
0.00000	0.00000	0.00000	9.70360	6.28213	-7.91682	6.28213	2418200	0.00000000285586	350157000
0.00000	0.00000	0.00000	9.25420	6.28221	-8.49250	6.28221	2015400	0.00000000314141	318329000
0.00000	0.00000	0.00000	8.82729	6.28212	-9.03887	6.28212	1695090	0.00000000196225	509618000
