Vload_(V)	ILoad_(A)	RsLoad (ohm)	SunsVoc_Voltage_(V)	SunsVoc_Current_(A)	Model_Voltage_(V)	Model_Current_(A)	Carrier_Density_(cm-3)	Lifetime_(s)	Inverse_Lifetime_(s-1)	Efficiency_(%)	Intensity_(suns)	Dark_IV_Voltage_(V)	Dark_IV_Current_(A)
2.757688	5.960313	0	51.855943	-0.070922	51.885097	-0.070922	7.35594E+15	0.000543	1753.324841	19.392643	1.097227	0	0
2.764171	5.961586	-0.505713	52.448849	-0.411046	52.601113	-0.411046	9.087288E+15	0.000634	1439.04072	19.419134	1.092347	0	0
3.382975	5.960208	3.396856	52.596269	-0.302792	52.705373	-0.302792	9.567016E+15	0.00068	1319.715804	19.273175	1.090645	0	0
6.70115	5.956266	4.380725	52.566377	0.012948	52.561685	0.012948	9.46806E+15	0.000708	1263.258416	19.103872	1.089379	0	0
10.531444	5.941776	4.725209	52.471963	0.385755	52.329678	0.385755	9.161139E+15	0.000731	1228.57754	19.089908	1.086715	0	0
13.960366	5.931014	4.408528	52.358396	0.743467	52.078383	0.743467	8.803063E+15	0.000751	1203.550122	18.992816	1.087269	0	0
17.63287	5.929325	3.820146	52.235356	1.086123	51.817126	1.086123	8.428425E+15	0.000769	1182.090317	18.952799	1.086622	0	0
21.283286	5.928192	3.223971	52.109701	1.395198	51.560438	1.395198	8.059685E+15	0.000785	1165.453643	19.041392	1.082019	0	0
24.914052	5.925928	2.647042	51.986416	1.662627	51.317818	1.662627	7.711084E+15	0.000798	1154.179992	18.973235	1.080212	0	0
28.457338	5.921963	2.106005	51.86166	1.919815	51.073219	1.919815	7.371211E+15	0.000812	1142.023607	18.923888	1.076558	0	0
32.057613	5.914187	1.592585	51.743438	2.163743	50.837283	2.163743	7.060737E+15	0.000827	1125.983338	18.966599	1.070582	0	0
35.642275	5.89243	1.175533	51.615865	2.406559	50.586973	2.406559	6.737978E+15	0.000843	1110.26691	18.842526	1.069052	0	0
36.689492	5.87799	1.088836	51.478245	2.630515	50.328787	2.630515	6.403636E+15	0.000855	1100.844828	18.812214	1.065834	0	0
37.757134	5.858465	1.00521	51.350917	2.837896	50.086067	2.837896	6.106669E+15	0.00087	1087.515317	18.878632	1.061019	0	0
38.823844	5.82707	0.943484	51.222935	3.031951	49.844993	3.031951	5.819775E+15	0.000884	1074.900653	18.826962	1.058698	0	0
39.866775	5.783164	0.890429	51.100139	3.211281	49.613663	3.211281	5.555097E+15	0.000899	1061.222791	18.832843	1.053501	0	0
40.918638	5.72303	0.838932	50.964317	3.389441	49.363812	3.389441	5.274035E+15	0.000913	1049.621566	18.872374	1.046866	0	0
41.985904	5.640505	0.78573	50.840786	3.545496	49.136565	3.545496	5.028739E+15	0.000926	1037.507452	18.749471	1.043898	0	0
43.051774	5.526675	0.735866	50.715377	3.687379	48.911255	3.687379	4.789461E+15	0.000937	1028.743762	18.758774	1.037764	0	0
44.088762	5.376302	0.688494	50.594868	3.814818	48.696879	3.814818	4.568502E+15	0.000947	1021.066221	18.785627	1.032303	0	0
45.111952	5.173786	0.644733	50.474564	3.935252	48.484198	3.935252	4.356421E+15	0.000957	1013.45705	18.696772	1.029375	0	0
46.121393	4.869527	0.622899	50.356954	4.046319	48.277789	4.046319	4.157059E+15	0.000966	1006.327593	18.746387	1.023268	0	0
47.089759	4.481355	0.605588	50.23714	4.151407	48.069877	4.151407	3.961817E+15	0.000974	1000.337344	18.778244	1.017147	0	0
48.036741	3.974542	0.597716	50.116304	4.252464	47.861057	4.252464	3.772704E+15	0.000983	993.999891	18.684177	1.013243	0	0
48.958938	3.374112	0.591441	50.0009	4.345828	47.661756	4.345828	3.599178E+15	0.000992	986.872693	18.738347	1.00554	0	0
49.825939	2.683565	0.601056	49.876593	4.438707	47.449632	4.438707	3.419774E+15	0.001	980.809164	18.715405	1.000224	0	0
50.617892	1.948678	0.642724	49.75486	4.522785	47.244181	4.522785	3.251398E+15	0.001006	976.340391	18.633481	0.996148	0	0
51.322447	1.245909	0.668414	49.637332	4.600989	47.04617	4.600989	3.095493E+15	0.001013	971.24762	18.7189	0.98892	0	0
42.80792	5.5569	0.746551	49.515353	4.676289	46.84268	4.676289	2.94038E+15	0.001019	967.308762	18.699397	0.983881	0	0
52.392724	0	0	49.402807	4.743387	46.655187	4.743387	2.803126E+15	0.001025	962.874422	18.629038	0.979726	0	0
0	0	0	49.280543	4.810171	46.45392	4.810171	2.660196E+15	0.001029	960.170888	18.717621	0.971495	0	0
0	0	0	49.163791	4.870942	46.26247	4.870942	2.529527E+15	0.001033	957.496309	18.660419	0.966944	0	0
0	0	0	49.049122	4.929001	46.074471	4.929001	2.406543E+15	0.001038	953.745369	18.611517	0.961958	0	0
0	0	0	48.92943	4.984154	45.880597	4.984154	2.28365E+15	0.001041	952.253359	18.701944	0.954571	0	0
0	0	0	48.816925	5.034455	45.698493	5.034455	2.173075E+15	0.001044	949.931481	18.636013	0.95064	0	0
0	0	0	48.699479	5.083241	45.509901	5.083241	2.062581E+15	0.001046	948.846129	18.623198	0.945496	0	0
0	0	0	48.587546	5.127513	45.330842	5.127513	1.961816E+15	0.001048	947.887732	18.706008	0.93807	0	0
0	0	0	48.47451	5.168692	45.151598	5.168692	1.864409E+15	0.001048	948.711755	18.616431	0.934416	0	0
0	0	0	48.361229	5.208816	44.972071	5.208816	1.771032E+15	0.001048	948.671178	18.623536	0.928203	0	0
0	0	0	48.249582	5.245794	44.796212	5.245794	1.683017E+15	0.001048	949.668449	18.689817	0.921357	0	0
0	0	0	48.136996	5.281374	44.619439	5.281374	1.59816E+15	0.001047	950.757373	18.593926	0.917994	0	0
0	0	0	48.023347	5.315029	44.441966	5.315029	1.516336E+15	0.001045	952.820538	18.649457	0.911478	0	0
0	0	0	47.913742	5.34579	44.271465	5.34579	1.440945E+15	0.001043	955.253247	18.674625	0.905436	0	0
0	0	0	47.800747	5.376218	44.096091	5.376218	1.366714E+15	0.001041	957.620591	18.574059	0.902046	0	0
0	0	0	47.6891	5.404482	43.923603	5.404482	1.296724E+15	0.001038	960.787056	18.618421	0.895187	0	0
0	0	0	47.577698	5.431217	43.752094	5.431217	1.230092E+15	0.001034	964.403778	18.640173	0.889304	0	0
0	0	0	47.463355	5.457529	43.576438	5.457529	1.164905E+15	0.001031	967.995275	18.539194	0.88565	0	0
0	0	0	47.353668	5.481501	43.408459	5.481501	1.105308E+15	0.001027	971.779798	18.630258	0.878237	0	0
0	0	0	47.240877	5.505007	43.236183	5.505007	1.046906E+15	0.001023	975.840295	18.595804	0.873396	0	0
0	0	0	47.129965	5.526561	43.067569	5.526561	9.922159E+14	0.001018	981.078689	18.530007	0.869149	0	0
0	0	0	47.022524	5.546182	42.904855	5.546182	9.417264E+14	0.001012	987.092232	18.613521	0.861736	0	0
0	0	0	46.912429	5.565961	42.738065	5.565961	8.924307E+14	0.001007	992.024864	18.551548	0.857423	0	0
0	0	0	46.802864	5.584251	42.572839	5.584251	8.457283E+14	0.001	998.398736	18.492808	0.852845	0	0
0	0	0	46.695709	5.601349	42.411585	5.601349	8.022343E+14	0.000994	1004.801219	18.593089	0.845353	0	0
0	0	0	46.583858	5.618216	42.243752	5.618216	7.590406E+14	0.000987	1012.199299	18.502087	0.842227	0	0
0	0	0	46.477887	5.633543	42.085014	5.633543	7.201114E+14	0.00098	1019.219919	18.506109	0.836687	0	0
0	0	0	46.369547	5.648535	41.923031	5.648535	6.822333E+14	0.000973	1026.542736	18.561507	0.830329	0	0
0	0	0	46.258186	5.662896	41.757132	5.662896	6.452374E+14	0.000965	1035.49466	18.453821	0.827612	0	0
0	0	0	46.153685	5.676106	41.601468	5.676106	6.122317E+14	0.000958	1042.92214	18.478429	0.821689	0	0
0	0	0	46.043835	5.688844	41.43856	5.688844	5.792447E+14	0.000949	1052.978349	18.534163	0.815912	0	0
0	0	0	45.938435	5.701205	41.281959	5.701205	5.491692E+14	0.000943	1060.134816	18.431078	0.813181	0	0
0	0	0	45.829524	5.712586	41.1211	5.712586	5.196401E+14	0.000933	1071.22453	18.503998	0.806507	0	0
0	0	0	45.722369	5.723644	40.962785	5.723644	4.920547E+14	0.000925	1080.833088	18.498329	0.801877	0	0
0	0	0	45.61309	5.734233	40.801741	5.734233	4.653538E+14	0.000916	1091.75789	18.40459	0.798698	0	0
0	0	0	45.509202	5.74406	40.648698	5.74406	4.412494E+14	0.000908	1101.389477	18.48226	0.791905	0	0
0	0	0	45.395717	5.753407	40.482543	5.753407	4.162771E+14	0.000895	1117.042119	18.42611	0.788159	0	0
0	0	0	45.292482	5.762549	40.330718	5.762549	3.947356E+14	0.000888	1125.983887	18.37287	0.784307	0	0
0	0	0	45.181529	5.771296	40.168335	5.771296	3.727727E+14	0.000877	1139.621126	18.461113	0.777738	0	0
0	0	0	45.074986	5.779504	40.012448	5.779504	3.527876E+14	0.000868	1151.912053	18.38217	0.774691	0	0
0	0	0	44.964932	5.787615	39.851622	5.787615	3.332251E+14	0.000858	1164.85433	18.359242	0.77014	0	0
0	0	0	44.856552	5.794974	39.693684	5.794974	3.149821E+14	0.000847	1179.831771	18.425851	0.763941	0	0
0	0	0	44.748375	5.80233	39.535924	5.80233	2.97735E+14	0.000838	1192.662598	18.300413	0.761646	0	0
0	0	0	44.642078	5.808936	39.381361	5.808936	2.816773E+14	0.000828	1207.960558	18.332748	0.755947	0	0
0	0	0	44.532227	5.815382	39.221879	5.815382	2.659639E+14	0.000816	1224.867864	18.366129	0.750697	0	0
0	0	0	44.425072	5.821431	39.066435	5.821431	2.514559E+14	0.000805	1241.474145	18.24892	0.74831	0	0
0	0	0	44.316569	5.827588	38.908917	5.827588	2.375488E+14	0.000796	1255.909848	18.323993	0.742203	0	0
0	0	0	44.204065	5.833583	38.745855	5.833583	2.239188E+14	0.000786	1272.183697	18.310637	0.737731	0	0
0	0	0	44.100748	5.839086	38.596032	5.839086	2.120743E+14	0.000778	1284.91977	18.199035	0.735198	0	0
0	0	0	43.987753	5.844203	38.432943	5.844203	1.998191E+14	0.000766	1306.178459	18.287341	0.728524	0	0
0	0	0	43.881006	5.849202	38.278639	5.849202	1.88878E+14	0.000756	1322.353176	18.197192	0.725728	0	0
0	0	0	43.772544	5.8537	38.122344	5.8537	1.783611E+14	0.000744	1343.647496	18.155562	0.721902	0	0
0	0	0	43.665062	5.858056	37.967492	5.858056	1.685052E+14	0.000733	1364.123234	18.238804	0.715887	0	0
0	0	0	43.55317	5.862198	37.806604	5.862198	1.588117E+14	0.00072	1388.774503	18.130482	0.713605	0	0
0	0	0	43.445933	5.866248	37.65227	5.866248	1.500356E+14	0.00071	1409.326465	18.129117	0.709081	0	0
0	0	0	43.33057	5.870582	37.486198	5.870582	1.411258E+14	0.0007	1429.283286	18.180154	0.703607	0	0
0	0	0	43.225375	5.874018	37.33522	5.874018	1.334557E+14	0.000688	1453.544795	18.041205	0.702182	0	0
0	0	0	43.110747	5.877411	37.171003	5.877411	1.255642E+14	0.000674	1484.156534	18.102394	0.696194	0	0
0	0	0	43.001509	5.880973	37.014124	5.880973	1.184721E+14	0.000664	1505.43278	18.092184	0.692289	0	0
0	0	0	42.888636	5.884235	36.852398	5.884235	1.115586E+14	0.000652	1532.983696	17.987806	0.689942	0	0
0	0	0	42.774294	5.887525	36.68853	5.887525	1.04961E+14	0.000641	1558.899051	18.07595	0.684045	0	0
0	0	0	42.660768	5.890324	36.526268	5.890324	9.879175E+13	0.000628	1592.560831	18.008965	0.681302	0	0
0	0	0	42.548304	5.892811	36.36578	5.892811	9.303364E+13	0.000613	1631.025595	17.95619	0.678017	0	0
0	0	0	42.433758	5.895647	36.201962	5.895647	8.750996E+13	0.000602	1661.140016	18.032065	0.671963	0	0
0	0	0	42.322641	5.898189	36.043229	5.898189	8.246199E+13	0.00059	1693.538751	17.90174	0.670354	0	0
0	0	0	42.202377	5.900962	35.871361	5.900962	7.732286E+13	0.00058	1725.477759	17.897236	0.665803	0	0
0	0	0	42.076356	5.903592	35.691514	5.903592	7.227783E+13	0.000567	1764.107755	17.951852	0.66083	0	0
0	0	0	41.960257	5.905848	35.52597	5.905848	6.791935E+13	0.000555	1802.638673	17.807777	0.659392	0	0
0	0	0	41.842771	5.908326	35.358196	5.908326	6.377408E+13	0.000546	1832.475995	17.891405	0.653813	0	0
0	0	0	41.72757	5.910118	35.194353	5.910118	5.995337E+13	0.000531	1882.05786	17.854601	0.65033	0	0
0	0	0	41.605061	5.912021	35.020087	5.912021	5.613925E+13	0.000517	1933.72959	17.753776	0.648167	0	0
0	0	0	41.482061	5.914144	34.844852	5.914144	5.255232E+13	0.000506	1974.886684	17.827368	0.642429	0	0
0	0	0	41.363471	5.916006	34.676078	5.916006	4.93098E+13	0.000495	2019.895287	17.734249	0.640121	0	0
0	0	0	41.24333	5.918105	34.50482	5.918105	4.62276E+13	0.000487	2052.486882	17.67803	0.63677	0	0
0	0	0	41.122985	5.919263	34.334321	5.919263	4.333223E+13	0.00047	2129.562275	17.778812	0.631243	0	0
0	0	0	40.998719	5.921261	34.157319	5.921261	4.053173E+13	0.000462	2165.863967	17.630238	0.630083	0	0
0	0	0	40.878905	5.92291	33.986949	5.92291	3.800222E+13	0.000452	2212.488226	17.67332	0.625255	0	0
0	0	0	40.751821	5.924113	33.806854	5.924113	3.549076E+13	0.000436	2292.855149	17.664009	0.621245	0	0
0	0	0	40.627106	5.92579	33.629509	5.92579	3.318684E+13	0.000428	2338.456868	17.536596	0.61957	0	0
0	0	0	40.501697	5.926899	33.451834	5.926899	3.10203E+13	0.000413	2421.421055	17.60585	0.614162	0	0
0	0	0	40.367916	5.928611	33.261643	5.928611	2.886423E+13	0.000405	2468.94085	17.538677	0.611365	0	0
0	0	0	40.238913	5.929968	33.078571	5.929968	2.692672E+13	0.000395	2533.308331	17.464629	0.608727	0	0
0	0	0	40.107093	5.930999	32.891907	5.930999	2.508073E+13	0.000381	2627.354696	17.560608	0.603187	0	0
0	0	0	39.980255	5.932264	32.711947	5.932264	2.342372E+13	0.000371	2691.854137	17.412046	0.602224	0	0
0	0	0	39.843534	5.933345	32.518288	5.933345	2.175966E+13	0.000359	2786.004591	17.443356	0.597634	0	0
0	0	0	39.712367	5.934629	32.332171	5.934629	2.027411E+13	0.000351	2847.764261	17.451308	0.593505	0	0
0	0	0	39.57438	5.935558	32.13688	5.935558	1.88204E+13	0.000338	2956.749519	17.294702	0.59212	0	0
0	0	0	39.4348	5.936802	31.938933	5.936802	1.745569E+13	0.00033	3027.767096	17.363435	0.586897	0	0
0	0	0	39.297998	5.937606	31.74543	5.937606	1.621399E+13	0.000318	3148.159956	17.306932	0.584193	0	0
0	0	0	39.155029	5.938378	31.543275	5.938378	1.501043E+13	0.000304	3284.966612	17.200638	0.58199	0	0
0	0	0	39.016919	5.939672	31.34727	5.939672	1.393254E+13	0.0003	3330.35087	17.29407	0.576714	0	0
0	0	0	38.870929	5.940377	31.140915	5.940377	1.287703E+13	0.000287	3480.262488	17.168367	0.575579	0	0
0	0	0	38.726449	5.941	30.936779	5.941	1.191107E+13	0.000274	3644.805251	17.167283	0.571596	0	0
0	0	0	38.57813	5.942032	30.72669	5.942032	1.099466E+13	0.000268	3737.702486	17.199327	0.567375	0	0
0	0	0	38.429444	5.942658	30.516602	5.942658	1.014665E+13	0.000256	3911.295864	17.052689	0.566293	0	0
0	0	0	38.27741	5.943607	30.301355	5.943607	9.347055E+12	0.000249	4017.663279	17.123023	0.561215	0	0
0	0	0	38.124967	5.944123	30.0861	5.944123	8.608501E+12	0.000237	4227.806719	17.050967	0.55884	0	0
0	0	0	37.967052	5.945076	29.862534	5.945076	7.904849E+12	0.000231	4332.951147	16.968261	0.556677	0	0
0	0	0	37.808973	5.945477	29.639478	5.945477	7.258018E+12	0.000218	4595.036538	17.063194	0.551493	0	0
0	0	0	37.650445	5.946035	29.415562	5.946035	6.662453E+12	0.000208	4817.279302	16.91818	0.550372	0	0
0	0	0	37.486037	5.946848	29.183002	5.946848	6.096325E+12	0.000201	4965.129166	16.917667	0.546758	0	0
0	0	0	37.325958	5.947355	28.956947	5.947355	5.591325E+12	0.000192	5209.736354	16.941752	0.542721	0	0
0	0	0	37.159018	5.947953	28.721093	5.947953	5.10916E+12	0.000184	5438.001758	16.770485	0.541785	0	0
0	0	0	36.9902	5.948486	28.482674	5.948486	4.663813E+12	0.000175	5700.384298	16.868683	0.53639	0	0
0	0	0	36.81791	5.949096	28.239245	5.949096	4.249288E+12	0.000169	5933.746693	16.767941	0.534807	0	0
0	0	0	36.649867	5.949543	28.002018	5.949543	3.880481E+12	0.00016	6238.714317	16.706559	0.532182	0	0
0	0	0	36.473494	5.94973	27.753433	5.94973	3.527754E+12	0.000148	6743.294844	16.769622	0.527473	0	0
0	0	0	36.291853	5.950408	27.496703	5.950408	3.19796E+12	0.000144	6962.710142	16.617577	0.526655	0	0
0	0	0	36.11205	5.951177	27.242405	5.951177	2.901865E+12	0.000141	7077.04015	16.659899	0.522632	0	0
0	0	0	35.927877	5.951416	26.982733	5.951416	2.626966E+12	0.000131	7613.127245	16.647446	0.519269	0	0
0	0	0	35.739783	5.951648	26.717547	5.951648	2.373067E+12	0.000122	8207.991071	16.501837	0.518424	0	0
0	0	0	35.550056	5.952185	26.449587	5.952185	2.14181E+12	0.000117	8530.382513	16.593026	0.513056	0	0
0	0	0	35.353673	5.952721	26.172242	5.952721	1.926141E+12	0.000113	8859.857399	16.444964	0.512238	0	0
0	0	0	35.158107	5.952823	25.89671	5.952823	1.732949E+12	0.000103	9716.139151	16.422988	0.508927	0	0
0	0	0	34.960825	5.953282	25.618197	5.953282	1.557686E+12	9.855978E-5	10146.126782	16.457346	0.505234	0	0
0	0	0	34.757867	5.953642	25.331837	5.953642	1.395856E+12	9.308269E-5	10743.135644	16.296817	0.504482	0	0
0	0	0	34.551928	5.95398	25.041303	5.95398	1.248822E+12	8.772786E-5	11398.887897	16.389635	0.499812	0	0
0	0	0	34.347092	5.954481	24.752051	5.954481	1.11794E+12	8.527035E-5	11727.405824	16.298411	0.497821	0	0
0	0	0	34.135559	5.954483	24.454164	5.954483	9.971567E+11	7.608422E-5	13143.329166	16.22079	0.495868	0	0
0	0	0	33.91794	5.95489	24.147044	5.95489	8.865012E+11	7.272495E-5	13750.439595	16.284151	0.491252	0	0
0	0	0	33.699056	5.955348	23.838044	5.955348	7.875849E+11	7.05716E-5	14170.005102	16.123916	0.490803	0	0
0	0	0	33.476538	5.955444	23.524517	5.955444	6.983315E+11	6.380982E-5	15671.568782	16.142942	0.486622	0	0
0	0	0	33.249241	5.955894	23.203662	5.955894	6.175949E+11	6.217981E-5	16082.390947	16.104202	0.484182	0	0
0	0	0	33.01974	5.956035	22.880213	5.956035	5.455412E+11	5.673628E-5	17625.406685	15.973355	0.482928	0	0
0	0	0	32.78252	5.956085	22.546048	5.956085	4.798871E+11	5.04905E-5	19805.704463	16.093654	0.478022	0	0
0	0	0	32.536275	5.956559	22.198433	5.956559	4.200795E+11	4.978745E-5	20085.382412	15.930861	0.47752	0	0
0	0	0	32.297504	5.956744	21.861835	5.956744	3.692137E+11	4.60226E-5	21728.456759	15.958729	0.474091	0	0
0	0	0	32.048237	5.957151	21.510057	5.957151	3.226711E+11	4.53979E-5	22027.451844	15.945691	0.47107	0	0
0	0	0	31.802687	5.957104	21.164309	5.957104	2.825624E+11	3.917997E-5	25523.246469	15.808627	0.470226	0	0
0	0	0	31.55489	5.957542	20.814525	5.957542	2.471389E+11	3.968542E-5	25198.173632	15.874782	0.465504	0	0
0	0	0	31.302643	5.957731	20.458911	5.957731	2.156366E+11	3.715456E-5	26914.596354	15.74847	0.46458	0	0
0	0	0	31.047047	5.957696	20.098985	5.957696	1.878095E+11	3.192983E-5	31318.674189	15.709369	0.461929	0	0
0	0	0	30.787326	5.957897	19.732815	5.957897	1.63209E+11	3.005149E-5	33276.217781	15.759904	0.458077	0	0
0	0	0	30.528585	5.95809	19.36803	5.95809	1.41906E+11	2.840378E-5	35206.576786	15.552447	0.457998	0	0
0	0	0	30.264699	5.958264	18.99603	5.958264	1.230408E+11	2.671291E-5	37435.081813	15.668886	0.453105	0	0
0	0	0	29.999751	5.958247	18.622892	5.958247	1.066223E+11	2.29588E-5	43556.278053	15.548453	0.452155	0	0
0	0	0	29.732068	5.95838	18.24561	5.95838	9.225814E+10	2.123765E-5	47086.199244	15.492048	0.44982	0	0
0	0	0	29.461158	5.958716	17.863385	5.958716	7.968998E+10	2.220919E-5	45026.411051	15.518946	0.445863	0	0
0	0	0	29.186654	5.958673	17.476833	5.958673	6.870036E+10	1.86335E-5	53666.783444	15.342604	0.445546	0	0
0	0	0	28.909864	5.958799	17.086724	5.958799	5.915307E+10	1.738117E-5	57533.529832	15.40408	0.441365	0	0
0	0	0	28.628826	5.958853	16.690773	5.958853	5.081576E+10	1.548289E-5	64587.404435	15.289902	0.439848	0	0
0	0	0	28.3444	5.959083	16.289689	5.959083	4.357364E+10	1.576731E-5	63422.340536	15.206911	0.438014	0	0
0	0	0	28.059973	5.959157	15.888917	5.959157	3.736364E+10	1.437637E-5	69558.605906	15.288156	0.433807	0	0
0	0	0	27.771871	5.959262	15.482898	5.959262	3.197507E+10	1.354257E-5	73841.229304	15.083214	0.433991	0	0
0	0	0	27.482257	5.959414	15.074652	5.959414	2.73413E+10	1.353256E-5	73895.845381	15.169134	0.429414	0	0
0	0	0	27.194278	5.959637	14.668549	5.959637	2.33997E+10	1.541467E-5	64873.278762	15.058979	0.428267	0	0
0	0	0	26.899805	5.959612	14.25382	5.959612	1.995616E+10	1.266706E-5	78944.927653	14.989031	0.426235	0	0
0	0	0	26.60276	5.95956	13.835524	5.95956	1.699572E+10	1.00449E-5	99552.961859	15.045399	0.422331	0	0
0	0	0	26.304734	5.959868	13.415071	5.959868	1.446679E+10	1.448618E-5	69031.291061	14.833825	0.422384	0	0
0	0	0	26.003891	5.959731	12.991609	5.959731	1.229541E+10	9.407375E-6	106299.584376	14.911136	0.418163	0	0
0	0	0	25.70313	5.959836	12.567733	5.959836	1.045041E+10	9.761802E-6	102440.099233	14.77911	0.417041	0	0
0	0	0	25.39902	5.960118	12.138744	5.960118	8.866196E+9	2.030981E-5	49237.27846	14.740071	0.414746	0	0
0	0	0	25.092092	5.960014	11.706641	5.960014	7.510689E+9	1.118312E-5	89420.503573	14.764692	0.411435	0	0
0	0	0	24.784552	5.959857	11.273799	5.959857	6.360312E+9	6.207708E-6	161090.039664	14.61311	0.41104	0	0
0	0	0	24.473826	5.960191	10.835352	5.960191	5.376867E+9	1.969275E-5	50780.104559	14.689092	0.406832	0	0
0	0	0	24.155954	5.960047	10.38793	5.960047	4.527958E+9	7.588596E-6	131776.678746	14.548071	0.406146	0	0
0	0	0	23.833794	5.960296	9.933558	5.960296	3.804247E+9	0.000104	9642.495519	14.519597	0.403534	0	0
0	0	0	23.508694	5.960172	9.475912	5.960172	3.191133E+9	1.009154E-5	99092.882635	14.530815	0.40054	0	0
0	0	0	23.167749	5.960526	8.994815	5.960526	2.654001E+9	-5.536495E-6	-180619.696182	14.333283	0.400434	0	0
0	0	0	22.829377	5.960349	8.518601	5.960349	2.210352E+9	-2.698034E-5	-37064.02698	14.434882	0.395646	0	0
