Vload_(V)	ILoad_(A)	RsLoad (ohm)	SunsVoc_Voltage_(V)	SunsVoc_Current_(A)	Model_Voltage_(V)	Model_Current_(A)	Carrier_Density_(cm-3)	Lifetime_(s)	Inverse_Lifetime_(s-1)	Efficiency_(%)	Intensity_(suns)	Dark_IV_Voltage_(V)	Dark_IV_Current_(A)
4.637872	9.391838	0	38.753562	-0.862959	39.050761	-0.862959	7.228548E+14	4.820413E-5	20744.243478	16.284917	1.094153	0	0
4.641231	9.391154	1.377228	38.704771	-0.517063	38.882771	-0.517063	7.020589E+14	4.845161E-5	20638.329166	16.260565	1.092557	0	0
4.704403	9.392419	0.494407	38.604019	0.090733	38.57281	0.090733	6.608653E+14	4.858907E-5	20580.03367	16.211159	1.090473	0	0
5.766782	9.388123	1.744858	38.489121	0.738445	38.235378	0.738445	6.166445E+14	4.873137E-5	20520.032105	16.259	1.086437	0	0
8.138063	9.370505	2.032882	38.375742	1.332819	37.918205	1.332819	5.757366E+14	4.88542E-5	20468.520481	16.237878	1.086146	0	0
10.677785	9.370617	1.760322	38.262478	1.882812	37.616763	1.882812	5.374267E+14	4.89436E-5	20431.201855	16.28605	1.084181	0	0
13.11148	9.370755	1.498721	38.150161	2.391062	37.330929	2.391062	5.018206E+14	4.901878E-5	20399.926304	16.227711	1.083522	0	0
15.518514	9.363128	1.326929	38.039886	2.850958	37.064007	2.850958	4.690417E+14	4.903831E-5	20391.855826	16.223644	1.081266	0	0
17.919235	9.349555	1.169958	37.931048	3.276336	36.81061	3.276336	4.386897E+14	4.905526E-5	20384.855102	16.247023	1.077757	0	0
20.339015	9.344975	0.936387	37.822978	3.676762	36.56677	3.676762	4.104076E+14	4.910816E-5	20362.935234	16.226851	1.074526	0	0
22.734159	9.340908	0.699468	37.712915	4.048578	36.330981	4.048578	3.833975E+14	4.906854E-5	20379.411155	16.258047	1.068986	0	0
25.142895	9.33635	0.461497	37.603702	4.392079	36.105926	4.392079	3.582824E+14	4.900458E-5	20406.041511	16.222063	1.06553	0	0
27.540761	9.316466	0.274261	37.496694	4.710844	35.891694	4.710844	3.352103E+14	4.897106E-5	20420.036561	16.244836	1.062087	0	0
28.452266	9.264533	0.290953	37.390045	5.005498	35.686224	5.005498	3.136411E+14	4.889799E-5	20450.576243	16.264058	1.058262	0	0
29.337559	9.173609	0.309608	37.283167	5.28182	35.486947	5.28182	2.933709E+14	4.881279E-5	20486.293015	16.227339	1.055307	0	0
30.219471	9.023768	0.323084	37.177482	5.539208	35.29545	5.539208	2.745744E+14	4.873746E-5	20517.971611	16.248907	1.049384	0	0
31.100212	8.790982	0.330522	37.07152	5.782784	35.108528	5.782784	2.569012E+14	4.867803E-5	20543.038526	16.212736	1.044781	0	0
31.966389	8.449365	0.333997	36.965998	6.007385	34.928627	6.007385	2.404002E+14	4.85743E-5	20586.921099	16.253591	1.039017	0	0
32.813321	7.979264	0.334794	36.861325	6.214753	34.755537	6.214753	2.250515E+14	4.844103E-5	20643.572967	16.25563	1.033516	0	0
33.651458	7.356945	0.332835	36.757797	6.40625	34.58907	6.40625	2.108105E+14	4.828614E-5	20709.80075	16.23241	1.029071	0	0
34.474526	6.570659	0.330669	36.654774	6.583481	34.428041	6.583481	1.975127E+14	4.809534E-5	20791.971014	16.273925	1.023069	0	0
35.257944	5.659232	0.326342	36.553418	6.74953	34.272532	6.74953	1.852306E+14	4.793906E-5	20859.75792	16.233817	1.01927	0	0
36.044514	4.581417	0.323011	36.452094	6.906032	34.120376	6.906032	1.736999E+14	4.77851E-5	20926.977257	16.272572	1.013163	0	0
36.770646	3.445217	0.32274	36.350868	7.051873	33.972006	7.051873	1.628829E+14	4.760213E-5	21007.417633	16.259223	1.007399	0	0
37.441206	2.277544	0.331406	36.251063	7.188489	33.828223	7.188489	1.528653E+14	4.744449E-5	21077.225059	16.251921	1.001621	0	0
38.04018	1.154011	0.344506	36.151046	7.31507	33.687692	7.31507	1.434335E+14	4.723053E-5	21172.709409	16.285544	0.995171	0	0
30.898959	8.851233	0.329913	36.052598	7.433411	33.551541	7.433411	1.347088E+14	4.703799E-5	21259.380396	16.250955	0.990462	0	0
38.616192	0	0	35.954949	7.543315	33.419077	7.543315	1.265712E+14	4.68242E-5	21356.451991	16.292218	0.984117	0	0
0	0	0	35.858836	7.644929	33.290963	7.644929	1.190347E+14	4.659761E-5	21460.30487	16.268884	0.978881	0	0
0	0	0	35.762658	7.739871	33.165081	7.739871	1.119361E+14	4.633712E-5	21580.949827	16.267936	0.97375	0	0
0	0	0	35.668374	7.828498	33.043221	7.828498	1.05383E+14	4.609751E-5	21693.125597	16.299463	0.967088	0	0
0	0	0	35.573372	7.913051	32.922073	7.913051	9.916319E+13	4.585696E-5	21806.922328	16.262348	0.962221	0	0
0	0	0	35.4769	7.992885	32.801117	7.992885	9.321831E+13	4.556784E-5	21945.287956	16.309983	0.955362	0	0
0	0	0	35.381849	8.067896	32.683207	8.067896	8.770585E+13	4.530226E-5	22073.939406	16.283392	0.950402	0	0
0	0	0	35.28732	8.138807	32.567219	8.138807	8.254371E+13	4.504871E-5	22198.18045	16.29492	0.944823	0	0
0	0	0	35.194882	8.206509	32.454383	8.206509	7.778683E+13	4.487738E-5	22282.932582	16.316379	0.939032	0	0
0	0	0	35.102347	8.268752	32.343309	8.268752	7.329695E+13	4.463067E-5	22406.108263	16.28597	0.93431	0	0
0	0	0	35.010513	8.327195	32.234221	8.327195	6.909518E+13	4.438171E-5	22531.797908	16.326926	0.927965	0	0
0	0	0	34.91868	8.382429	32.126234	8.382429	6.51323E+13	4.41255E-5	22662.626102	16.288551	0.923151	0	0
0	0	0	34.827353	8.434085	32.019961	8.434085	6.141496E+13	4.385115E-5	22804.410893	16.310686	0.917505	0	0
0	0	0	34.736826	8.48259	31.915544	8.48259	5.793809E+13	4.357547E-5	22948.68324	16.322685	0.91153	0	0
0	0	0	34.647394	8.528443	31.813102	8.528443	5.469524E+13	4.332119E-5	23083.385744	16.294276	0.907124	0	0
0	0	0	34.558534	8.571322	31.712228	8.571322	5.165173E+13	4.304854E-5	23229.587229	16.337287	0.900555	0	0
0	0	0	34.470735	8.611885	31.613181	8.611885	4.880993E+13	4.279573E-5	23366.813934	16.302538	0.896189	0	0
0	0	0	34.383753	8.650501	31.515596	8.650501	4.614787E+13	4.256931E-5	23491.098059	16.330479	0.890319	0	0
0	0	0	34.296379	8.686813	31.418412	8.686813	4.361916E+13	4.230904E-5	23635.609196	16.340105	0.884779	0	0
0	0	0	34.209822	8.72075	31.322828	8.72075	4.125002E+13	4.203443E-5	23790.018724	16.311501	0.880123	0	0
0	0	0	34.123494	8.752576	31.228183	8.752576	3.901468E+13	4.173588E-5	23960.199112	16.356837	0.874029	0	0
0	0	0	34.038063	8.783001	31.134892	8.783001	3.692131E+13	4.147022E-5	24113.684891	16.317174	0.869584	0	0
0	0	0	33.951604	8.811636	31.041205	8.811636	3.491655E+13	4.115407E-5	24298.931524	16.349504	0.864083	0	0
0	0	0	33.86637	8.83904	30.949133	8.83904	3.304633E+13	4.08806E-5	24461.481203	16.338965	0.858992	0	0
0	0	0	33.782247	8.865021	30.858625	8.865021	3.129833E+13	4.062771E-5	24613.743829	16.322467	0.854678	0	0
0	0	0	33.697895	8.889209	30.768499	8.889209	2.963807E+13	4.032395E-5	24799.156843	16.359392	0.848452	0	0
0	0	0	33.614163	8.912622	30.679244	8.912622	2.807683E+13	4.00661E-5	24958.756884	16.325483	0.844165	0	0
0	0	0	33.53102	8.934152	30.591192	8.934152	2.660766E+13	3.975572E-5	25153.613519	16.349876	0.838757	0	0
0	0	0	33.448089	8.955264	30.503496	8.955264	2.521858E+13	3.950241E-5	25314.911786	16.353117	0.833587	0	0
0	0	0	33.365501	8.974721	30.416687	8.974721	2.39071E+13	3.919492E-5	25513.511524	16.326962	0.829392	0	0
0	0	0	33.28373	8.993049	30.331054	8.993049	2.26756E+13	3.888443E-5	25717.234409	16.380547	0.823272	0	0
0	0	0	33.201812	9.010812	30.245472	9.010812	2.150532E+13	3.859682E-5	25908.869461	16.325091	0.819499	0	0
0	0	0	33.119354	9.027842	30.159614	9.027842	2.038816E+13	3.830386E-5	26107.025568	16.367375	0.813906	0	0
0	0	0	33.038727	9.044191	30.075768	9.044191	1.93518E+13	3.80665E-5	26269.818027	16.342804	0.809237	0	0
0	0	0	32.956923	9.059207	29.991222	9.059207	1.835401E+13	3.773363E-5	26501.559292	16.336326	0.804831	0	0
0	0	0	32.875233	9.073677	29.906972	9.073677	1.740884E+13	3.741825E-5	26724.924688	16.36481	0.79912	0	0
0	0	0	32.795079	9.087448	29.824453	9.087448	1.652866E+13	3.713372E-5	26929.704703	16.326647	0.794978	0	0
0	0	0	32.714876	9.100378	29.742167	9.100378	1.56924E+13	3.681891E-5	27159.953086	16.355526	0.789688	0	0
0	0	0	32.634494	9.113237	29.659735	9.113237	1.489663E+13	3.656505E-5	27348.519392	16.342761	0.784966	0	0
0	0	0	32.554388	9.124804	29.578001	9.124804	1.414369E+13	3.622076E-5	27608.478458	16.324846	0.780996	0	0
0	0	0	32.475623	9.136444	29.497553	9.136444	1.344039E+13	3.598834E-5	27786.776196	16.376321	0.775166	0	0
0	0	0	32.39591	9.146791	29.416609	9.146791	1.276417E+13	3.562089E-5	28073.414112	16.322613	0.771644	0	0
0	0	0	32.315494	9.157217	29.33496	9.157217	1.211641E+13	3.531563E-5	28316.073474	16.369652	0.766262	0	0
0	0	0	32.237235	9.167131	29.255581	9.167131	1.151754E+13	3.505132E-5	28529.594369	16.335839	0.762423	0	0
0	0	0	32.157179	9.176588	29.174607	9.176588	1.09355E+13	3.47422E-5	28783.436203	16.33464	0.758189	0	0
0	0	0	32.076992	9.185558	29.093669	9.185558	1.038196E+13	3.441773E-5	29054.79493	16.355402	0.753348	0	0
0	0	0	31.996479	9.19419	29.012526	9.19419	9.854307E+12	3.409528E-5	29329.57537	16.318642	0.749761	0	0
0	0	0	31.917321	9.202587	28.932783	9.202587	9.361664E+12	3.382798E-5	29561.325807	16.356298	0.744814	0	0
0	0	0	31.834978	9.210208	28.850196	9.210208	8.875284E+12	3.341612E-5	29925.680613	16.335462	0.740831	0	0
0	0	0	31.753697	9.217804	28.768654	9.217804	8.419938E+12	3.308527E-5	30224.933115	16.325909	0.737124	0	0
0	0	0	31.674589	9.224969	28.689368	9.224969	7.999182E+12	3.278169E-5	30504.831334	16.358151	0.732019	0	0
0	0	0	31.592327	9.231923	28.607088	9.231923	7.583922E+12	3.24313E-5	30834.410228	16.312552	0.728867	0	0
0	0	0	31.512908	9.238309	28.527759	9.238309	7.203455E+12	3.208568E-5	31166.552069	16.35623	0.72396	0	0
0	0	0	31.433587	9.244639	28.448546	9.244639	6.842494E+12	3.178857E-5	31457.847988	16.323753	0.72028	0	0
0	0	0	31.353417	9.250618	28.368623	9.250618	6.496028E+12	3.14567E-5	31789.732659	16.325745	0.716507	0	0
0	0	0	31.2747	9.255966	28.290321	9.255966	6.172905E+12	3.106861E-5	32186.830222	16.351747	0.711719	0	0
0	0	0	31.195069	9.261872	28.210952	9.261872	5.862365E+12	3.084632E-5	32418.774052	16.300062	0.708817	0	0
0	0	0	31.114	9.267013	28.130433	9.267013	5.562251E+12	3.047261E-5	32816.358292	16.34622	0.70391	0	0
0	0	0	31.034124	9.271799	28.051192	9.271799	5.281572E+12	3.008848E-5	33235.30956	16.307557	0.700665	0	0
0	0	0	30.955375	9.276933	27.972936	9.276933	5.018712E+12	2.986861E-5	33479.966577	16.314936	0.696682	0	0
0	0	0	30.875074	9.281057	27.893499	9.281057	4.764132E+12	2.940886E-5	34003.354585	16.334921	0.692276	0	0
0	0	0	30.79523	9.285468	27.814415	9.285468	4.523799E+12	2.908334E-5	34383.942898	16.293241	0.689335	0	0
0	0	0	30.715109	9.289856	27.735072	9.289856	4.29481E+12	2.879932E-5	34723.040662	16.334471	0.684718	0	0
0	0	0	30.635101	9.293975	27.655927	9.293975	4.077709E+12	2.849431E-5	35094.729499	16.295583	0.681473	0	0
0	0	0	30.554833	9.297741	27.576644	9.297741	3.87092E+12	2.813209E-5	35546.590469	16.29759	0.677846	0	0
0	0	0	30.474957	9.301661	27.497694	9.301661	3.675547E+12	2.787322E-5	35876.73345	16.319817	0.673519	0	0
0	0	0	30.393741	9.304754	27.417708	9.304754	3.487001E+12	2.738255E-5	36519.607772	16.273909	0.67096	0	0
0	0	0	30.31295	9.308177	27.338031	9.308177	3.309034E+12	2.704834E-5	36970.848985	16.320821	0.666291	0	0
0	0	0	30.231783	9.311394	27.258056	9.311394	3.139381E+12	2.668774E-5	37470.383811	16.275418	0.663455	0	0
0	0	0	30.14926	9.31459	27.176771	9.31459	2.975806E+12	2.634379E-5	37959.614935	16.289521	0.659629	0	0
0	0	0	30.066035	9.317537	27.094883	9.317537	2.819466E+12	2.594976E-5	38535.998464	16.302236	0.65558	0	0
0	0	0	29.984656	9.32043	27.014809	9.32043	2.674536E+12	2.561335E-5	39042.142302	16.266113	0.65277	0	0
0	0	0	29.902019	9.322953	26.933631	9.322953	2.534985E+12	2.51659E-5	39736.307683	16.300406	0.648483	0	0
0	0	0	29.818664	9.326094	26.851559	9.326094	2.401594E+12	2.498071E-5	40030.884945	16.262597	0.645436	0	0
0	0	0	29.735357	9.328738	26.769694	9.328738	2.275292E+12	2.465862E-5	40553.771441	16.266963	0.64202	0	0
0	0	0	29.652067	9.33103	26.687957	9.33103	2.155653E+12	2.424269E-5	41249.541501	16.287291	0.637759	0	0
0	0	0	29.568678	9.333342	26.60612	9.333342	2.042174E+12	2.387438E-5	41885.897757	16.238643	0.635385	0	0
0	0	0	29.483983	9.335551	26.523047	9.335551	1.933028E+12	2.348513E-5	42580.134587	16.290895	0.630755	0	0
0	0	0	29.398537	9.337894	26.439201	9.337894	1.828822E+12	2.318426E-5	43132.711518	16.244995	0.628078	0	0
0	0	0	29.31309	9.340134	26.355389	9.340134	1.730233E+12	2.288442E-5	43697.853119	16.268224	0.624384	0	0
0	0	0	29.226811	9.342011	26.270882	9.342011	1.636074E+12	2.245451E-5	44534.479125	16.278389	0.62073	0	0
0	0	0	29.138751	9.34394	26.184629	9.34394	1.545252E+12	2.206213E-5	45326.539164	16.234795	0.61804	0	0
0	0	0	29.052406	9.345868	26.100044	9.345868	1.461095E+12	2.173555E-5	46007.586328	16.27786	0.613819	0	0
0	0	0	28.964395	9.347415	26.013961	9.347415	1.380029E+12	2.124421E-5	47071.653369	16.232217	0.611035	0	0
0	0	0	28.875649	9.349487	25.926998	9.349487	1.302839E+12	2.103722E-5	47534.786723	16.242572	0.607619	0	0
0	0	0	28.786102	9.350846	25.839483	9.350846	1.229327E+12	2.050826E-5	48760.836323	16.248036	0.603741	0	0
0	0	0	28.69703	9.352968	25.752188	9.352968	1.160318E+12	2.041403E-5	48985.918248	16.203412	0.601472	0	0
0	0	0	28.606928	9.353831	25.66429	9.353831	1.094453E+12	1.969233E-5	50781.20455	16.250079	0.596908	0	0
0	0	0	28.515045	9.355396	25.57444	9.355396	1.031134E+12	1.934981E-5	51680.095253	16.204448	0.594442	0	0
0	0	0	28.421513	9.357167	25.482922	9.357167	9.704386E+11	1.914086E-5	52244.248865	16.22167	0.590907	0	0
0	0	0	28.328537	9.358327	25.392137	9.358327	9.136448E+11	1.864441E-5	53635.368697	16.225961	0.58749	0	0
0	0	0	28.233142	9.359498	25.298998	9.359498	8.588267E+11	1.816031E-5	55065.143898	16.190134	0.584773	0	0
0	0	0	28.137683	9.360762	25.205767	9.360762	8.072631E+11	1.776448E-5	56292.09899	16.240776	0.580737	0	0
0	0	0	28.038123	9.362358	25.108445	9.362358	7.567798E+11	1.755518E-5	56963.247775	16.183428	0.578151	0	0
0	0	0	27.933761	9.363231	25.00668	9.363231	7.072468E+11	1.690715E-5	59146.557361	16.203351	0.574814	0	0
0	0	0	27.83198	9.364382	24.907338	9.364382	6.620629E+11	1.649041E-5	60641.313425	16.201659	0.571358	0	0
0	0	0	27.729987	9.365553	24.807785	9.365553	6.196801E+11	1.612217E-5	62026.380572	16.155379	0.569037	0	0
0	0	0	27.628385	9.366331	24.708736	9.366331	5.801578E+11	1.555437E-5	64290.615375	16.1991	0.564789	0	0
0	0	0	27.524709	9.367656	24.6075	9.367656	5.424256E+11	1.533987E-5	65189.608942	16.157631	0.562547	0	0
0	0	0	27.418877	9.368497	24.504318	9.368497	5.064385E+11	1.483763E-5	67396.216221	16.16207	0.559328	0	0
0	0	0	27.310415	9.36943	24.398551	9.36943	4.720329E+11	1.44054E-5	69418.396136	16.184606	0.555661	0	0
0	0	0	27.202198	9.370383	24.293016	9.370383	4.400344E+11	1.402546E-5	71298.919207	16.127419	0.553656	0	0
0	0	0	27.09256	9.371532	24.186039	9.371532	4.09827E+11	1.38019E-5	72453.793071	16.186072	0.54958	0	0
0	0	0	26.979982	9.372206	24.076351	9.372206	3.809659E+11	1.327058E-5	75354.680521	16.119699	0.547444	0	0
0	0	0	26.866701	9.373283	23.965855	9.373283	3.539759E+11	1.304583E-5	76652.819489	16.151407	0.543909	0	0
0	0	0	26.750987	9.373616	23.853224	9.373616	3.283791E+11	1.232375E-5	81144.160702	16.152316	0.540664	0	0
0	0	0	26.633557	9.37461	23.73872	9.37461	3.042944E+11	1.207863E-5	82790.877617	16.109345	0.538448	0	0
0	0	0	26.513791	9.375211	23.622067	9.375211	2.815492E+11	1.158005E-5	86355.444847	16.140668	0.534794	0	0
0	0	0	26.391755	9.376071	23.503127	9.376071	2.601207E+11	1.128191E-5	88637.455729	16.099634	0.532301	0	0
0	0	0	26.26691	9.376775	23.381503	9.376775	2.398855E+11	1.089096E-5	91819.298541	16.093191	0.529465	0	0
0	0	0	26.140529	9.377624	23.258341	9.377624	2.210041E+11	1.063297E-5	94047.115274	16.117514	0.525837	0	0
0	0	0	26.011599	9.377967	23.132858	9.377967	2.032726E+11	1.002165E-5	99784.00168	16.063629	0.523951	0	0
0	0	0	25.881167	9.378867	23.005743	9.378867	1.867815E+11	9.847751E-6	101546.024115	16.11379	0.520086	0	0
0	0	0	25.748089	9.379127	22.876251	9.379127	1.713339E+11	9.218203E-6	108481.018434	16.054213	0.518055	0	0
0	0	0	25.611254	9.38043	22.742787	9.38043	1.567813E+11	9.398649E-6	106398.273254	16.077531	0.514731	0	0
0	0	0	25.472475	9.380597	22.607781	9.380597	1.432839E+11	8.717237E-6	114715.242103	16.079149	0.511644	0	0
0	0	0	25.330706	9.380816	22.469852	9.380816	1.306949E+11	8.109065E-6	123318.778145	16.033412	0.509508	0	0
0	0	0	25.187174	9.381355	22.33011	9.381355	1.190755E+11	7.767652E-6	128739.028854	16.078644	0.505788	0	0
0	0	0	25.042024	9.382244	22.18869	9.382244	1.083755E+11	7.725031E-6	129449.312693	16.03206	0.503638	0	0
0	0	0	24.893363	9.382442	22.044065	9.382442	9.841242E+10	7.162385E-6	139618.298872	16.031971	0.500934	0	0
0	0	0	24.741679	9.383227	21.896324	9.383227	8.919027E+10	7.08376E-6	141167.96204	16.051413	0.49761	0	0
0	0	0	24.586713	9.383322	21.745599	9.383322	8.066033E+10	6.477207E-6	154387.529496	15.9938	0.49575	0	0
0	0	0	24.428283	9.383901	21.591361	9.383901	7.278249E+10	6.271347E-6	159455.381614	16.048327	0.491964	0	0
0	0	0	24.265214	9.384305	21.432665	9.384305	6.547671E+10	5.944379E-6	168226.14562	15.991547	0.490038	0	0
0	0	0	24.099957	9.384719	21.271838	9.384719	5.882069E+10	5.650796E-6	176966.223649	15.996311	0.487189	0	0
0	0	0	23.932053	9.385175	21.108426	9.385175	5.275065E+10	5.414003E-6	184706.20217	16.0055	0.483997	0	0
0	0	0	23.763382	9.385599	20.944276	9.385599	4.728346E+10	5.182932E-6	192940.974899	15.94674	0.482282	0	0
0	0	0	23.590039	9.385631	20.775702	9.385631	4.225465E+10	4.655544E-6	214797.676788	15.99677	0.47876	0	0
0	0	0	23.415291	9.386127	20.605623	9.386127	3.772628E+10	4.517949E-6	221339.365664	15.953583	0.476676	0	0
0	0	0	23.239399	9.386603	20.434439	9.386603	3.365823E+10	4.397038E-6	227425.808313	15.95531	0.474051	0	0
0	0	0	23.060094	9.386748	20.260034	9.386748	2.996241E+10	4.025941E-6	248389.139987	15.977842	0.470886	0	0
0	0	0	22.878208	9.386966	20.083098	9.386966	2.662779E+10	3.73759E-6	267552.114276	15.922311	0.46921	0	0
0	0	0	22.692679	9.387534	19.902516	9.387534	2.360844E+10	3.751485E-6	266561.080691	15.957399	0.465992	0	0
0	0	0	22.503671	9.387731	19.718661	9.387731	2.088426E+10	3.477568E-6	287557.315259	15.90971	0.463895	0	0
0	0	0	22.312997	9.388165	19.533116	9.388165	1.845447E+10	3.436183E-6	291020.578289	15.904308	0.461481	0	0
0	0	0	22.120052	9.388403	19.345421	9.388403	1.628338E+10	3.241928E-6	308458.461571	15.926916	0.458223	0	0
0	0	0	21.924559	9.388476	19.155298	9.388476	1.434397E+10	2.917543E-6	342754.172781	15.858423	0.456732	0	0
0	0	0	21.723921	9.388579	18.960162	9.388579	1.259345E+10	2.64295E-6	378365.118355	15.916956	0.453184	0	0
0	0	0	21.520604	9.388569	18.762454	9.388569	1.103736E+10	2.309305E-6	433030.737531	15.861623	0.451363	0	0
0	0	0	21.313562	9.389086	18.560971	9.389086	9.650209E+9	2.398005E-6	417013.23968	15.867629	0.448791	0	0
0	0	0	21.103842	9.389096	18.357031	9.389096	8.42274E+9	2.101074E-6	475946.971577	15.892253	0.44585	0	0
0	0	0	20.889368	9.389468	18.148364	9.389468	7.328767E+9	2.115125E-6	472785.25416	15.832608	0.444122	0	0
0	0	0	20.668687	9.389788	17.933676	9.389788	6.351257E+9	2.119493E-6	471811.004092	15.867627	0.441325	0	0
0	0	0	20.438957	9.389727	17.710299	9.389727	5.471911E+9	1.772659E-6	564124.308761	15.837357	0.438859	0	0
0	0	0	20.206531	9.389913	17.48423	9.389913	4.706078E+9	1.671897E-6	598123.100712	15.806777	0.436946	0	0
0	0	0	19.972423	9.390429	17.25643	9.390429	4.043013E+9	1.962873E-6	509457.234981	15.856437	0.433411	0	0
0	0	0	19.731128	9.390213	17.021852	9.390213	3.457215E+9	1.454727E-6	687414.101811	15.761104	0.432501	0	0
0	0	0	19.486582	9.390553	16.783953	9.390553	2.950066E+9	1.570724E-6	636649.252437	15.816584	0.429019	0	0
0	0	0	19.236515	9.390399	16.540828	9.390399	2.508313E+9	1.191924E-6	838979.358162	15.779638	0.427093	0	0
0	0	0	18.981385	9.39045	16.29272	9.39045	2.125716E+9	1.04778E-6	954398.712579	15.758422	0.42493	0	0
0	0	0	18.718528	9.390936	16.036974	9.390936	1.79247E+9	1.358853E-6	735914.908547	15.800781	0.421883	0	0
0	0	0	18.451179	9.390915	15.777006	9.390915	1.507069E+9	1.117034E-6	895227.938854	15.728838	0.420287	0	0
0	0	0	18.178456	9.390905	15.511808	9.390905	1.2627E+9	9.256282E-7	1080347.340658	15.757571	0.417662	0	0
0	0	0	17.899999	9.391256	15.240933	9.391256	1.054028E+9	1.238892E-6	807172.557472	15.733673	0.415155	0	0
0	0	0	17.616348	9.390895	14.965208	9.390895	8.768813E+8	6.358481E-7	1572702.643487	15.698217	0.413665	0	0
0	0	0	17.329136	9.391184	14.685837	9.391184	7.278236E+8	7.61081E-7	1313920.633964	15.741892	0.410288	0	0
