Vload_(V)	ILoad_(A)	RsLoad (ohm)	SunsVoc_Voltage_(V)	SunsVoc_Current_(A)	Model_Voltage_(V)	Model_Current_(A)	Carrier_Density_(cm-3)	Lifetime_(s)	Inverse_Lifetime_(s-1)	Efficiency_(%)	Intensity_(suns)	Dark_IV_Voltage_(V)	Dark_IV_Current_(A)
4.934442	8.679532	0	37.852955	-1.216702	38.242164	-1.216702	2.68892E+14	1.906953E-5	52439.565486	14.326455	1.141018	0	0
4.934522	8.680586	-0.594084	37.78613	-0.81011	38.046894	-0.81011	2.577119E+14	1.905973E-5	52466.541237	14.325648	1.140581	0	0
4.984035	8.681935	-0.599753	37.675577	-0.201361	37.741059	-0.201361	2.402089E+14	1.898298E-5	52678.668538	14.318962	1.141018	0	0
5.012142	8.682539	-0.602975	37.557053	0.40938	37.422472	0.40938	2.227397E+14	1.890237E-5	52903.349002	14.312056	1.139747	0	0
5.376803	8.681012	-0.645021	37.434511	0.993156	37.104376	0.993156	2.059919E+14	1.880878E-5	53166.600312	14.296386	1.139588	0	0
6.958209	8.678202	1.060455	37.315562	1.523938	36.803567	1.523938	1.909229E+14	1.872597E-5	53401.714858	14.289386	1.138278	0	0
8.793222	8.673203	1.569362	37.196352	2.008909	36.514256	2.008909	1.769116E+14	1.861324E-5	53725.141944	14.288745	1.137524	0	0
10.950106	8.669583	1.49925	37.08098	2.445377	36.242246	2.445377	1.64319E+14	1.849874E-5	54057.684681	14.288635	1.13673	0	0
12.867741	8.65839	1.543927	36.966687	2.853251	35.978299	2.853251	1.527176E+14	1.839626E-5	54358.825061	14.297424	1.136016	0	0
14.672956	8.645611	1.473459	36.853014	3.238663	35.720101	3.238663	1.419828E+14	1.831468E-5	54600.969126	14.303739	1.135222	0	0
16.488051	8.627485	1.376939	36.740566	3.591715	35.472067	3.591715	1.320986E+14	1.822212E-5	54878.334664	14.303786	1.134785	0	0
18.277343	8.621912	1.195962	36.627367	3.919521	35.22982	3.919521	1.228366E+14	1.81114E-5	55213.823937	14.314652	1.134547	0	0
20.085835	8.620743	0.991152	36.515263	4.224978	34.994629	4.224978	1.142986E+14	1.800814E-5	55530.424455	14.326259	1.133912	0	0
21.898539	8.613613	0.809708	36.402456	4.510496	34.763835	4.510496	1.063011E+14	1.78951E-5	55881.198476	14.326477	1.134388	0	0
23.689174	8.601138	0.644955	36.291021	4.776628	34.539789	4.776628	9.894613E+13	1.779275E-5	56202.652976	14.336095	1.134031	0	0
25.497687	8.553517	0.548561	36.178834	5.02132	34.321037	5.02132	9.205183E+13	1.76602E-5	56624.482363	14.319621	1.134547	0	0
26.096324	8.517376	0.537348	36.069392	5.247454	34.110745	5.247454	8.57862E+13	1.754254E-5	57004.283836	14.31429	1.133952	0	0
26.690021	8.474741	0.521832	35.962368	5.458259	33.907557	5.458259	8.006904E+13	1.744493E-5	57323.243333	14.308445	1.133674	0	0
27.273516	8.419233	0.508472	35.856356	5.653515	33.710105	5.653515	7.477945E+13	1.734375E-5	57657.64083	14.296518	1.133356	0	0
27.874994	8.345183	0.495442	35.750524	5.836584	33.516292	5.836584	6.984548E+13	1.724255E-5	57996.053023	14.291607	1.13292	0	0
28.475699	8.250732	0.482173	35.644741	6.006966	33.326273	6.006966	6.523744E+13	1.71317E-5	58371.30664	14.289413	1.132245	0	0
29.069514	8.134681	0.468344	35.54002	6.165305	33.141119	6.165305	6.097371E+13	1.702042E-5	58752.951432	14.284443	1.131451	0	0
29.652812	7.988169	0.45621	35.435821	6.312772	32.959859	6.312772	5.700663E+13	1.690453E-5	59155.720276	14.284858	1.130895	0	0
30.24	7.802792	0.444809	35.330495	6.450504	32.780184	6.450504	5.325778E+13	1.676871E-5	59634.868528	14.289384	1.129784	0	0
30.818748	7.581981	0.432527	35.22873	6.577935	32.608007	6.577935	4.986909E+13	1.665383E-5	60046.248645	14.295863	1.128434	0	0
31.306162	7.35724	0.422723	35.12788	6.697198	32.439431	6.697198	4.672282E+13	1.654186E-5	60452.690215	14.302301	1.12768	0	0
31.839001	7.056224	0.415153	35.027226	6.809614	32.273141	6.809614	4.377991E+13	1.643178E-5	60857.691802	14.303938	1.126211	0	0
32.382474	6.695479	0.408392	34.92783	6.915127	32.110504	6.915127	4.105513E+13	1.633057E-5	61234.844394	14.30385	1.124861	0	0
32.917709	6.274123	0.403335	34.829937	7.01247	31.952411	7.01247	3.853685E+13	1.622395E-5	61637.272897	14.303555	1.123432	0	0
33.438921	5.79937	0.399506	34.731912	7.104004	31.795989	7.104004	3.616954E+13	1.611199E-5	62065.594294	14.300579	1.121805	0	0
33.965563	5.264345	0.394823	34.635571	7.18894	31.643821	7.18894	3.398422E+13	1.600113E-5	62495.584575	14.301202	1.120534	0	0
34.47682	4.674842	0.393579	34.538755	7.268993	31.492633	7.268993	3.192082E+13	1.588258E-5	62962.070153	14.305177	1.118827	0	0
34.976746	4.043142	0.391351	34.443018	7.344628	31.34416	7.344628	3.000332E+13	1.577435E-5	63394.057915	14.300465	1.117597	0	0
35.476058	3.374062	0.391406	34.346823	7.415812	31.196586	7.415812	2.819241E+13	1.565718E-5	63868.46153	14.300658	1.116168	0	0
35.941573	2.686268	0.401283	34.252344	7.481826	31.052912	7.481826	2.651999E+13	1.554015E-5	64349.450176	14.304506	1.115017	0	0
36.397078	1.990329	0.413467	34.158975	7.546521	30.910795	7.546521	2.496452E+13	1.546398E-5	64666.403423	14.304652	1.113826	0	0
36.834301	1.290839	0.43529	34.065459	7.609178	30.769018	7.609178	2.349788E+13	1.540755E-5	64903.226101	14.310258	1.112833	0	0
37.22605	0.638714	0.487719	33.973267	7.664494	30.631718	7.664494	2.213621E+13	1.53057E-5	65335.156372	14.315939	1.111563	0	0
29.276573	8.087807	0.463743	33.880992	7.718149	30.49474	7.718149	2.085222E+13	1.522257E-5	65691.9137	14.308463	1.11065	0	0
37.661521	0	0	33.789649	7.767747	30.360406	7.767747	1.965443E+13	1.512866E-5	66099.726645	14.313679	1.10934	0	0
0	0	0	33.698992	7.813822	30.228211	7.813822	1.853357E+13	1.502515E-5	66555.078273	14.30906	1.10803	0	0
0	0	0	33.608106	7.857624	30.0965	7.857624	1.747396E+13	1.492108E-5	67019.274145	14.313339	1.106482	0	0
0	0	0	33.518968	7.898718	29.967929	7.898718	1.649351E+13	1.48251E-5	67453.163882	14.310193	1.105172	0	0
0	0	0	33.428866	7.937448	29.839016	7.937448	1.555829E+13	1.471435E-5	67960.882325	14.312183	1.103386	0	0
0	0	0	33.339499	7.975117	29.711287	7.975117	1.468303E+13	1.462915E-5	68356.649126	14.30377	1.101838	0	0
0	0	0	33.251276	8.009642	29.586212	8.009642	1.386722E+13	1.452842E-5	68830.602814	14.301774	1.10021	0	0
0	0	0	33.163967	8.042397	29.462905	8.042397	1.310446E+13	1.44351E-5	69275.601056	14.300878	1.098185	0	0
0	0	0	33.077263	8.072955	29.341193	8.072955	1.238846E+13	1.433389E-5	69764.754229	14.30647	1.096082	0	0
0	0	0	32.991669	8.102013	29.221402	8.102013	1.171998E+13	1.424271E-5	70211.347831	14.311754	1.094295	0	0
0	0	0	32.905537	8.129146	29.101691	8.129146	1.108367E+13	1.413347E-5	70754.03408	14.31448	1.092271	0	0
0	0	0	32.819943	8.155239	28.983002	8.155239	1.048554E+13	1.403617E-5	71244.51485	14.321478	1.090286	0	0
0	0	0	32.735787	8.179608	28.866783	8.179608	9.928902E+12	1.393894E-5	71741.457485	14.320949	1.0885	0	0
0	0	0	32.651011	8.202524	28.750359	8.202524	9.398014E+12	1.382747E-5	72319.825293	14.324217	1.086674	0	0
0	0	0	32.567769	8.224766	28.636054	8.224766	8.904349E+12	1.37419E-5	72770.144014	14.327738	1.084808	0	0
0	0	0	32.483924	8.245478	28.521621	8.245478	8.433294E+12	1.363597E-5	73335.441592	14.336423	1.082545	0	0
0	0	0	32.399768	8.265066	28.40724	8.265066	7.985536E+12	1.35222E-5	73952.456936	14.33082	1.080957	0	0
0	0	0	32.317408	8.28361	28.295508	8.28361	7.57035E+12	1.341958E-5	74517.966723	14.335653	1.078893	0	0
0	0	0	32.235882	8.301404	28.185092	8.301404	7.180615E+12	1.332771E-5	75031.635764	14.331635	1.077186	0	0
0	0	0	32.155026	8.317745	28.076138	8.317745	6.813891E+12	1.321826E-5	75652.935158	14.333489	1.07536	0	0
0	0	0	32.073826	8.333691	27.96687	8.333691	6.464449E+12	1.31186E-5	76227.621457	14.33262	1.073614	0	0
0	0	0	31.992169	8.348987	27.857275	8.348987	6.1311E+12	1.301789E-5	76817.347362	14.3357	1.071748	0	0
0	0	0	31.911329	8.363485	27.749024	8.363485	5.818013E+12	1.29198E-5	77400.54999	14.339214	1.069803	0	0
0	0	0	31.832547	8.377201	27.643669	8.377201	5.52828E+12	1.283334E-5	77922.057459	14.343214	1.067818	0	0
0	0	0	31.758486	8.39014	27.544544	8.39014	5.269073E+12	1.277851E-5	78256.361361	14.345237	1.066151	0	0
0	0	0	31.678152	8.402411	27.43785	8.402411	5.00163E+12	1.266703E-5	78945.092011	14.350065	1.064126	0	0
0	0	0	31.595581	8.414281	27.328498	8.414281	4.740872E+12	1.254393E-5	79719.864187	14.350792	1.062181	0	0
0	0	0	31.514724	8.425831	27.221399	8.425831	4.498704E+12	1.244509E-5	80352.999569	14.355103	1.060196	0	0
0	0	0	31.435485	8.436985	27.116472	8.436985	4.273381E+12	1.23654E-5	80870.806247	14.358731	1.057934	0	0
0	0	0	31.355723	8.446817	27.011517	8.446817	4.057965E+12	1.223816E-5	81711.604408	14.357154	1.056108	0	0
0	0	0	31.276173	8.456417	26.906901	8.456417	3.853934E+12	1.212297E-5	82488.032464	14.35615	1.054004	0	0
0	0	0	31.197898	8.465347	26.804184	8.465347	3.663184E+12	1.200335E-5	83310.103452	14.355487	1.05182	0	0
0	0	0	31.118528	8.474353	26.700013	8.474353	3.479403E+12	1.190159E-5	84022.40024	14.353546	1.049796	0	0
0	0	0	31.039141	8.482918	26.596011	8.482918	3.304804E+12	1.179682E-5	84768.576559	14.363162	1.047573	0	0
0	0	0	30.960131	8.490935	26.492727	8.490935	3.13973E+12	1.168397E-5	85587.357298	14.36722	1.045231	0	0
0	0	0	30.881855	8.498922	26.390343	8.498922	2.984321E+12	1.159674E-5	86231.121221	14.366716	1.043246	0	0
0	0	0	30.803106	8.506392	26.287602	8.506392	2.835732E+12	1.149477E-5	86996.112642	14.371009	1.041301	0	0
0	0	0	30.725173	8.513469	26.186059	8.513469	2.695966E+12	1.139399E-5	87765.571538	14.375258	1.039038	0	0
0	0	0	30.644905	8.520165	26.081757	8.520165	2.559209E+12	1.127041E-5	88727.888056	14.372008	1.03757	0	0
0	0	0	30.565927	8.526504	25.979234	8.526504	2.431421E+12	1.115122E-5	89676.285334	14.388541	1.035029	0	0
0	0	0	30.487308	8.532699	25.877211	8.532699	2.310551E+12	1.104396E-5	90547.266069	14.387153	1.033203	0	0
0	0	0	30.409376	8.538873	25.77603	8.538873	2.196666E+12	1.096049E-5	91236.789769	14.389811	1.031298	0	0
0	0	0	30.330774	8.544109	25.674491	8.544109	2.087486E+12	1.081846E-5	92434.583053	14.390142	1.029432	0	0
0	0	0	30.252335	8.54923	25.573196	8.54923	1.983942E+12	1.068588E-5	93581.463525	14.39195	1.027407	0	0
0	0	0	30.174386	8.554675	25.472314	8.554675	1.886133E+12	1.060212E-5	94320.767008	14.388638	1.025701	0	0
0	0	0	30.095163	8.559891	25.369932	8.559891	1.791664E+12	1.051016E-5	95146.042146	14.392429	1.023676	0	0
0	0	0	30.016626	8.564302	25.268834	8.564302	1.702683E+12	1.037052E-5	96427.224651	14.389386	1.021652	0	0
0	0	0	29.937142	8.569372	25.166158	8.569372	1.617127E+12	1.030277E-5	97061.28235	14.391359	1.019627	0	0
0	0	0	29.858115	8.573542	25.064536	8.573542	1.536325E+12	1.017311E-5	98298.337334	14.392748	1.017841	0	0
0	0	0	29.779088	8.577675	24.962915	8.577675	1.45956E+12	1.00569E-5	99434.252787	14.390379	1.016015	0	0
0	0	0	29.69895	8.581405	24.860105	8.581405	1.385632E+12	9.910474E-6	100903.342228	14.40039	1.013792	0	0
0	0	0	29.617538	8.585078	24.755709	8.585078	1.314361E+12	9.766263E-6	102393.313733	14.40518	1.011727	0	0
0	0	0	29.537253	8.589181	24.652467	8.589181	1.247667E+12	9.691666E-6	103181.438165	14.40477	1.009901	0	0
0	0	0	29.457197	8.592641	24.549859	8.592641	1.184533E+12	9.567703E-6	104518.298559	14.403347	1.007917	0	0
0	0	0	29.37639	8.595786	24.446471	8.595786	1.124045E+12	9.420103E-6	106155.954595	14.410669	1.005773	0	0
0	0	0	29.295076	8.598625	24.342608	8.598625	1.066296E+12	9.249692E-6	108111.706547	14.410171	1.003749	0	0
0	0	0	29.214269	8.601866	24.239135	8.601866	1.011846E+12	9.143556E-6	109366.634664	14.4129	1.001843	0	0
0	0	0	29.131109	8.605183	24.132645	8.605183	9.587116E+11	9.049919E-6	110498.227993	14.413911	0.999739	0	0
0	0	0	29.050138	8.608297	24.029008	8.608297	9.096581E+11	8.962328E-6	111578.150193	14.413603	0.997754	0	0
0	0	0	28.969118	8.610627	23.925754	8.610627	8.63087E+11	8.79101E-6	113752.567391	14.424687	0.995651	0	0
0	0	0	28.886498	8.613206	23.82033	8.613206	8.180501E+11	8.656265E-6	115523.261436	14.418464	0.993944	0	0
0	0	0	28.804433	8.615804	23.71558	8.615804	7.756425E+11	8.542103E-6	117067.184109	14.41796	0.992276	0	0
0	0	0	28.720358	8.61844	23.608267	8.61844	7.344753E+11	8.43779E-6	118514.44772	14.424662	0.990014	0	0
0	0	0	28.63679	8.620549	23.501891	8.620549	6.957214E+11	8.278403E-6	120796.242722	14.424566	0.988188	0	0
0	0	0	28.553353	8.623022	23.395453	8.623022	6.590681E+11	8.185422E-6	122168.411779	14.426748	0.986282	0	0
0	0	0	28.469605	8.625083	23.288858	8.625083	6.242201E+11	8.046082E-6	124284.088693	14.428685	0.984456	0	0
0	0	0	28.385809	8.62745	23.182007	8.62745	5.911957E+11	7.966775E-6	125521.308097	14.431787	0.982551	0	0
0	0	0	28.300378	8.629024	23.07357	8.629024	5.593255E+11	7.772061E-6	128666.008147	14.428711	0.980804	0	0
0	0	0	28.215308	8.631075	22.965286	8.631075	5.292967E+11	7.666111E-6	130444.243087	14.429563	0.978978	0	0
0	0	0	28.12991	8.632972	22.856675	8.632972	5.007738E+11	7.548561E-6	132475.573782	14.43338	0.976874	0	0
0	0	0	28.044415	8.634429	22.748201	8.634429	4.737578E+11	7.372001E-6	135648.387069	14.43354	0.975048	0	0
0	0	0	27.960014	8.636537	22.640695	8.636537	4.485175E+11	7.321376E-6	136586.344611	14.439555	0.972905	0	0
0	0	0	27.87246	8.638013	22.529602	8.638013	4.237544E+11	7.163129E-6	139603.790319	14.433371	0.971238	0	0
0	0	0	27.78226	8.63992	22.414904	8.63992	3.996718E+11	7.08133E-6	141216.415215	14.43225	0.969292	0	0
0	0	0	27.692746	8.641291	22.301393	8.641291	3.771256E+11	6.921396E-6	144479.516471	14.435211	0.967347	0	0
0	0	0	27.603363	8.64315	22.187733	8.64315	3.558815E+11	6.865189E-6	145662.413632	14.438289	0.965442	0	0
0	0	0	27.512837	8.644262	22.073095	8.644262	3.35585E+11	6.677791E-6	149750.127797	14.443264	0.963219	0	0
0	0	0	27.422441	8.645757	21.958373	8.645757	3.164728E+11	6.576202E-6	152063.466492	14.443838	0.961552	0	0
0	0	0	27.330411	8.646802	21.841872	8.646802	2.981331E+11	6.392918E-6	156423.087664	14.445636	0.959607	0	0
0	0	0	27.237043	8.648048	21.723551	8.648048	2.806121E+11	6.255319E-6	159863.956072	14.447702	0.957661	0	0
0	0	0	27.143511	8.64914	21.605116	8.64914	2.640929E+11	6.098715E-6	163968.954744	14.449868	0.955597	0	0
0	0	0	27.048884	8.650051	21.485414	8.650051	2.483697E+11	5.912817E-6	169124.131757	14.446049	0.953811	0	0
0	0	0	26.953539	8.651402	21.364518	8.651402	2.334738E+11	5.825152E-6	171669.349393	14.444212	0.952144	0	0
0	0	0	26.854976	8.652591	21.239668	8.652591	2.190135E+11	5.705416E-6	175272.071282	14.451907	0.95004	0	0
0	0	0	26.756135	8.653606	21.114574	8.653606	2.054118E+11	5.560784E-6	179830.771554	14.448412	0.948293	0	0
0	0	0	26.657604	8.654498	20.989947	8.654498	1.926937E+11	5.402223E-6	185108.974955	14.446482	0.946348	0	0
0	0	0	26.557767	8.655475	20.863612	8.655475	1.806098E+11	5.269187E-6	189782.597829	14.454622	0.944324	0	0
0	0	0	26.457309	8.65651	20.736453	8.65651	1.692155E+11	5.158671E-6	193848.362015	14.447026	0.942696	0	0
0	0	0	26.354809	8.657727	20.606595	8.657727	1.583302E+11	5.096136E-6	196227.095378	14.452362	0.940711	0	0
0	0	0	26.250872	8.658388	20.475291	8.658388	1.480071E+11	4.912895E-6	203545.984083	14.457846	0.938726	0	0
0	0	0	26.14633	8.659308	20.343048	8.659308	1.383027E+11	4.799565E-6	208352.201549	14.456979	0.936861	0	0
0	0	0	26.039812	8.660055	20.208427	8.660055	1.290691E+11	4.65105E-6	215005.212933	14.450845	0.935233	0	0
0	0	0	25.930958	8.661033	20.070704	8.661033	1.202696E+11	4.562909E-6	219158.436154	14.455014	0.933248	0	0
0	0	0	25.820405	8.661235	19.931363	8.661235	1.119465E+11	4.294015E-6	232882.286588	14.449681	0.931541	0	0
0	0	0	25.708987	8.662145	19.790447	8.662145	1.041409E+11	4.203701E-6	237885.631966	14.458267	0.929239	0	0
0	0	0	25.596588	8.662528	19.648652	8.662528	9.681805E+10	3.996287E-6	250232.285141	14.459528	0.927532	0	0
0	0	0	25.48267	8.663103	19.50481	8.663103	8.992141E+10	3.841537E-6	260312.484002	14.456677	0.925547	0	0
0	0	0	25.365404	8.664023	19.356508	8.664023	8.333482E+10	3.771237E-6	265164.951036	14.457762	0.923563	0	0
0	0	0	25.246912	8.664655	19.206857	8.664655	7.716934E+10	3.640673E-6	274674.501762	14.45671	0.921737	0	0
0	0	0	25.126542	8.665106	19.054963	8.665106	7.137298E+10	3.472373E-6	287987.471216	14.454188	0.919791	0	0
0	0	0	25.004065	8.665786	18.900251	8.665786	6.592182E+10	3.365879E-6	297099.170755	14.461646	0.917688	0	0
0	0	0	24.877129	8.666304	18.740034	8.666304	6.071112E+10	3.221097E-6	310453.262444	14.4632	0.915742	0	0
0	0	0	24.749294	8.666859	18.578653	8.666859	5.587971E+10	3.094775E-6	323125.270695	14.456515	0.914036	0	0
0	0	0	24.620038	8.667291	18.415568	8.667291	5.13854E+10	2.946123E-6	339429.186781	14.458563	0.91213	0	0
0	0	0	24.488414	8.667597	18.249587	8.667597	4.718001E+10	2.77455E-6	360418.854795	14.463949	0.909867	0	0
0	0	0	24.352493	8.66845	18.077798	8.66845	4.319823E+10	2.735778E-6	365526.752125	14.45682	0.908359	0	0
0	0	0	24.215511	8.668594	17.90518	8.668594	3.952527E+10	2.536142E-6	394299.722013	14.461054	0.906454	0	0
0	0	0	24.073334	8.669398	17.725536	8.669398	3.604295E+10	2.496296E-6	400593.450051	14.463323	0.904389	0	0
0	0	0	23.928969	8.669887	17.54336	8.669887	3.282079E+10	2.388286E-6	418710.316449	14.458656	0.902603	0	0
0	0	0	23.782986	8.670174	17.359293	8.670174	2.985536E+10	2.239259E-6	446576.236847	14.461481	0.900737	0	0
0	0	0	23.634815	8.670481	17.172453	8.670481	2.711932E+10	2.102965E-6	475519.129147	14.458628	0.898951	0	0
0	0	0	23.482347	8.670855	16.980149	8.670855	2.456547E+10	1.986958E-6	503282.018255	14.461506	0.896887	0	0
0	0	0	23.327299	8.671238	16.784584	8.671238	2.221489E+10	1.879854E-6	531956.339392	14.457708	0.89518	0	0
0	0	0	23.16686	8.671449	16.582356	8.671449	2.001911E+10	1.738252E-6	575290.659984	14.470405	0.892798	0	0
0	0	0	23.002632	8.67209	16.375025	8.67209	1.799607E+10	1.697319E-6	589164.577	14.463555	0.891091	0	0
0	0	0	22.836623	8.67233	16.165754	8.67233	1.615879E+10	1.574736E-6	635027.024877	14.46745	0.889027	0	0
0	0	0	22.666171	8.672675	15.950804	8.672675	1.446733E+10	1.480804E-6	675308.865964	14.468051	0.887241	0	0
0	0	0	22.493024	8.673106	15.732388	8.673106	1.29303E+10	1.412242E-6	708093.761502	14.463818	0.885335	0	0
0	0	0	22.315188	8.673431	15.508145	8.673431	1.152148E+10	1.325551E-6	754403.199257	14.468955	0.88343	0	0
0	0	0	22.133988	8.673824	15.279608	8.673824	1.024376E+10	1.259626E-6	793886.125338	14.471293	0.881564	0	0
0	0	0	21.947626	8.674073	15.044679	8.674073	9.077304E+9	1.167124E-6	856806.825775	14.465366	0.879619	0	0
0	0	0	21.757818	8.674437	14.805315	8.674437	8.025705E+9	1.105622E-6	904468.149789	14.466399	0.877952	0	0
0	0	0	21.563305	8.674763	14.560051	8.674763	7.074312E+9	1.041097E-6	960525.280952	14.464201	0.876166	0	0
0	0	0	21.363974	8.674849	14.308909	8.674849	6.216237E+9	9.316834E-7	1073325.971194	14.469512	0.874022	0	0
0	0	0	21.160313	8.674792	14.052431	8.674792	5.446926E+9	8.065197E-7	1239895.376216	14.472381	0.872077	0	0
0	0	0	20.952373	8.675404	13.79001	8.675404	4.759592E+9	8.093656E-7	1235535.62903	14.472811	0.87037	0	0
0	0	0	20.741428	8.675539	13.524194	8.675539	4.15089E+9	7.295665E-7	1370677.002135	14.469394	0.868623	0	0
0	0	0	20.526987	8.675615	13.254021	8.675615	3.611835E+9	6.472534E-7	1544989.917053	14.470734	0.866916	0	0
0	0	0	20.306306	8.675912	12.975802	8.675912	3.130089E+9	6.069195E-7	1647664.851217	14.471241	0.86509	0	0
0	0	0	20.08048	8.67641	12.690926	8.67641	2.703559E+9	6.078048E-7	1645265.1548	14.465726	0.863423	0	0
0	0	0	19.850962	8.676506	12.401739	8.676506	2.329566E+9	5.403067E-7	1850800.747737	14.467915	0.861676	0	0
0	0	0	19.61865	8.676104	12.109462	8.676104	2.003674E+9	4.10238E-7	2437609.5152	14.468343	0.85985	0	0
0	0	0	19.380589	8.676506	11.809247	8.676506	1.716957E+9	3.98244E-7	2511023.354052	14.463562	0.858183	0	0
0	0	0	19.139	8.676745	11.504726	8.676745	1.467905E+9	3.697212E-7	2704740.682135	14.467058	0.856437	0	0
0	0	0	18.894683	8.676621	11.197087	8.676621	1.25276E+9	3.020525E-7	3310682.586413	14.464408	0.854571	0	0
0	0	0	18.646511	8.677272	10.883901	8.677272	1.066477E+9	3.311922E-7	3019394.775894	14.459579	0.852904	0	0
0	0	0	18.394386	8.677138	10.566434	8.677138	9.055692E+8	2.654881E-7	3766646.694525	14.469092	0.851038	0	0
0	0	0	18.138912	8.677339	10.244446	8.677339	7.672704E+8	2.455636E-7	4072264.740053	14.46501	0.849371	0	0
0	0	0	17.881723	8.677635	9.920206	8.677635	6.493697E+8	2.403526E-7	4160554.100049	14.454692	0.847743	0	0
0	0	0	17.620483	8.677463	9.591293	8.677463	5.481435E+8	1.85991E-7	5376605.279177	14.460901	0.845957	0	0
0	0	0	17.356385	8.677789	9.258318	8.677789	4.618397E+8	1.859659E-7	5377329.335625	14.460766	0.844012	0	0
