Vload_(V)	ILoad_(A)	RsLoad_(ohm)	SunsVoc_Voltage_(V)	SunsVoc_Current_(A)	Model_Voltage_(V)	Model_Current_(A)	Carrier_Density_(cm-3)	Lifetime_(s)	Inverse_Lifetime_(s-1)	(Carrier_Density+Doping)/qWni^2_(cm^2/C)	Carrier_Density_at_Vmp_(cm-3)	Lifetime_at_Vmp_(s)	Efficiency_(%)	Intensity_(suns)	Dark_IV_Voltage_(V)	Dark_IV_Current_(A)
3.756407	6.372557	0	65.554238	-0.115108	65.58276	-0.115108	4.030347E+15	0.000245	4056.617544	3.232404E+16	4.131326E+14	0.00042	19.640556	1.154784	0	0
3.891651	6.378351	-0.481928	65.367084	0.334768	65.280144	0.334768	3.845566E+15	0.000249	3994.313655	3.145744E+16	0	0	19.650003	1.152174	0	0
5.763799	6.375694	-0.903384	65.183361	0.753779	64.978777	0.753779	3.663833E+15	0.000255	3903.41844	3.060514E+16	0	0	19.590517	1.147809	0	0
11.662145	6.369195	3.893142	65.000903	1.129994	64.681075	1.129994	3.492522E+15	0.000261	3812.213674	2.980171E+16	0	0	19.538413	1.146197	0	0
17.480542	6.36076	4.678259	64.824284	1.476273	64.389835	1.476273	3.329103E+15	0.000267	3732.986661	2.903529E+16	0	0	19.563959	1.143587	0	0
22.279687	6.357983	4.085268	64.650076	1.797518	64.101135	1.797518	3.177069E+15	0.000272	3654.503468	2.832228E+16	0	0	19.569387	1.137697	0	0
27.663068	6.354984	3.361263	64.476561	2.094799	63.813676	2.094799	3.032844E+15	0.000278	3578.249013	2.764588E+16	0	0	19.580747	1.12911	0	0
34.010602	6.32097	2.926933	64.30223	2.377853	63.523362	2.377853	2.894669E+15	0.000284	3506.492548	2.699786E+16	0	0	19.558919	1.120826	0	0
39.219437	6.341386	1.861402	64.13043	2.638196	63.237409	2.638196	2.76117E+15	0.00029	3433.750333	2.637176E+16	0	0	19.550696	1.1137	0	0
44.993337	6.317045	1.223785	63.955241	2.879431	62.948423	2.879431	2.634664E+15	0.000296	3364.972957	2.577846E+16	0	0	19.560287	1.10453	0	0
46.428725	6.301024	1.114982	63.783768	3.104629	62.664289	3.104629	2.510661E+15	0.000302	3303.908589	2.519691E+16	0	0	19.519178	1.093684	0	0
47.90446	6.278817	1.00517	63.611397	3.312738	62.380495	3.312738	2.39402E+15	0.000308	3242.254466	2.464988E+16	0	0	19.522987	1.082814	0	0
49.365387	6.240673	0.928085	63.44168	3.502445	62.102416	3.502445	2.281336E+15	0.000313	3186.439323	2.41214E+16	0	0	19.532136	1.072631	0	0
50.855439	6.185341	0.85157	63.277803	3.679768	61.832312	3.679768	2.174719E+15	0.000318	3136.064476	2.362138E+16	0	0	19.566947	1.062895	0	0
52.312085	6.104081	0.785471	63.112578	3.843396	61.562351	3.843396	2.075722E+15	0.000324	3083.201598	2.31571E+16	0	0	19.578051	1.052257	0	0
53.755116	5.988346	0.721936	62.953356	3.995484	61.301252	3.995484	1.979719E+15	0.000329	3036.815285	2.270686E+16	0	0	19.551091	1.041419	0	0
55.205126	5.825018	0.657178	62.788826	4.138881	61.03404	4.138881	1.890715E+15	0.000334	2989.029444	2.228944E+16	0	0	19.530139	1.031387	0	0
56.617266	5.588548	0.602618	62.620415	4.272536	60.763119	4.272536	1.802252E+15	0.000339	2947.037765	2.187456E+16	0	0	19.538059	1.021172	0	0
58.013076	5.245224	0.561059	62.46201	4.397493	60.506012	4.397493	1.715286E+15	0.000343	2911.618104	2.14667E+16	0	0	19.568901	1.010478	0	0
59.409386	4.750228	0.527987	62.300542	4.514762	60.245936	4.514762	1.636691E+15	0.000348	2870.233949	2.10981E+16	0	0	19.567227	0.999744	0	0
60.735865	4.108348	0.502049	62.14226	4.623464	59.991558	4.623464	1.559678E+15	0.000352	2833.475464	2.073692E+16	0	0	19.573074	0.989609	0	0
61.990264	3.301194	0.484573	61.981935	4.725052	59.735711	4.725052	1.487131E+15	0.000357	2798.138778	2.039669E+16	0	0	19.563165	0.97996	0	0
63.189781	2.347819	0.486682	61.826103	4.819895	59.486936	4.819895	1.416535E+15	0.000361	2767.273954	2.00656E+16	0	0	19.565	0.970352	0	0
64.226735	1.386345	0.499093	61.669576	4.908122	59.238643	4.908122	1.350616E+15	0.000365	2735.517751	1.975645E+16	0	0	19.547314	0.9602	0	0
54.015758	5.961597	0.712362	61.517664	4.990571	58.997592	4.990571	1.287002E+15	0.000369	2707.854524	1.94581E+16	0	0	19.551823	0.95024	0	0
65.507914	0	0	61.363669	5.06639	58.755601	5.06639	1.22768E+15	0.000373	2679.095923	1.917989E+16	0	0	19.595483	0.94056	0	0
0	0	0	61.215351	5.138265	58.521727	5.138265	1.169902E+15	0.000376	2657.376131	1.890892E+16	0	0	19.597138	0.931087	0	0
0	0	0	61.06397	5.205692	58.284788	5.205692	1.116431E+15	0.00038	2631.599047	1.865815E+16	0	0	19.599852	0.921518	0	0
0	0	0	60.914263	5.269054	58.050996	5.269054	1.063994E+15	0.000383	2610.620407	1.841223E+16	0	0	19.553162	0.911798	0	0
0	0	0	60.763943	5.32835	57.817422	5.32835	1.014198E+15	0.000386	2590.237721	1.817869E+16	0	0	19.552714	0.902341	0	0
0	0	0	60.617258	5.384165	57.589552	5.384165	9.661989E+14	0.000388	2572.964513	1.795358E+16	0	0	19.555268	0.892724	0	0
0	0	0	60.465959	5.436951	57.356157	5.436951	9.212338E+14	0.000391	2554.436438	1.77427E+16	0	0	19.606677	0.883275	0	0
0	0	0	60.319029	5.487645	57.128859	5.487645	8.767342E+14	0.000393	2540.868969	1.7534E+16	0	0	19.609827	0.874145	0	0
0	0	0	60.170914	5.537175	56.899696	5.537175	8.35291E+14	0.000396	2522.539125	1.733964E+16	0	0	19.59738	0.865287	0	0
0	0	0	60.029824	5.581142	56.68246	5.581142	7.952251E+14	0.0004	2501.425857	1.715174E+16	0	0	19.555273	0.856899	0	0
0	0	0	59.884078	5.62296	56.459419	5.62296	7.58608E+14	0.000402	2484.249383	1.698001E+16	0	0	19.55804	0.848599	0	0
0	0	0	59.744254	5.662384	56.245138	5.662384	7.223199E+14	0.000405	2471.276203	1.680982E+16	0	0	19.572436	0.839972	0	0
0	0	0	59.601366	5.698349	56.028148	5.698349	6.889288E+14	0.000407	2454.852444	1.665322E+16	0	0	19.591367	0.83164	0	0
0	0	0	59.465299	5.732395	55.821035	5.732395	6.562004E+14	0.000409	2446.838927	1.649973E+16	0	0	19.588059	0.823819	0	0
0	0	0	59.325311	5.764499	55.609223	5.764499	6.263029E+14	0.000411	2434.246971	1.635951E+16	0	0	19.588246	0.816006	0	0
0	0	0	59.191571	5.794283	55.406909	5.794283	5.967948E+14	0.000412	2426.549867	1.622112E+16	0	0	19.568949	0.808305	0	0
0	0	0	59.052768	5.82372	55.197375	5.82372	5.697514E+14	0.000414	2417.277057	1.609429E+16	0	0	19.51614	0.80058	0	0
0	0	0	58.917476	5.850936	54.993631	5.850936	5.428319E+14	0.000415	2408.045246	1.596804E+16	0	0	19.522673	0.793062	0	0
0	0	0	58.78247	5.87653	54.790912	5.87653	5.176822E+14	0.000417	2399.86269	1.585009E+16	0	0	19.559483	0.78548	0	0
0	0	0	58.648935	5.900642	54.590796	5.900642	4.936221E+14	0.000418	2393.386133	1.573726E+16	0	0	19.564891	0.778226	0	0
0	0	0	58.51544	5.923483	54.39121	5.923483	4.708088E+14	0.000419	2387.414	1.563026E+16	0	0	19.551268	0.771163	0	0
0	0	0	58.382598	5.944683	54.193293	5.944683	4.48949E+14	0.00042	2382.513427	1.552774E+16	0	0	19.519261	0.76418	0	0
0	0	0	58.250247	5.964972	53.996343	5.964972	4.281041E+14	0.00042	2380.598536	1.542998E+16	0	0	19.498407	0.757141	0	0
0	0	0	58.115976	5.984134	53.797213	5.984134	4.082063E+14	0.00042	2378.281167	1.533667E+16	0	0	19.482884	0.750078	0	0
0	0	0	57.98436	6.002746	53.601827	6.002746	3.88877E+14	0.00042	2379.150539	1.524601E+16	0	0	19.51255	0.742952	0	0
0	0	0	57.852295	6.020286	53.406297	6.020286	3.707383E+14	0.000421	2375.998944	1.516095E+16	0	0	19.539502	0.736304	0	0
0	0	0	57.724027	6.036889	53.216432	6.036889	3.53314E+14	0.000421	2374.941941	1.507923E+16	0	0	19.506472	0.729736	0	0
0	0	0	57.592696	6.052456	53.022834	6.052456	3.371088E+14	0.000422	2371.810912	1.500323E+16	0	0	19.463872	0.723144	0	0
0	0	0	57.466756	6.067167	52.837103	6.067167	3.212237E+14	0.000421	2373.684313	1.492873E+16	0	0	19.440349	0.71648	0	0
0	0	0	57.338529	6.081031	52.648615	6.081031	3.066386E+14	0.000421	2372.329052	1.486033E+16	0	0	19.440094	0.709776	0	0
0	0	0	57.209976	6.094532	52.459731	6.094532	2.924169E+14	0.000421	2374.782271	1.479363E+16	0	0	19.465514	0.703336	0	0
0	0	0	57.082484	6.107219	52.272741	6.107219	2.787723E+14	0.000421	2375.670105	1.472964E+16	0	0	19.45687	0.696927	0	0
0	0	0	56.955441	6.119382	52.086587	6.119382	2.658246E+14	0.000421	2377.707758	1.466891E+16	0	0	19.427574	0.690798	0	0
0	0	0	56.832442	6.130824	51.906437	6.130824	2.534797E+14	0.00042	2379.212773	1.461102E+16	0	0	19.376008	0.684677	0	0
0	0	0	56.703929	6.141561	51.71901	6.141561	2.42038E+14	0.00042	2379.083352	1.455736E+16	0	0	19.361376	0.67834	0	0
0	0	0	56.580316	6.151711	51.538709	6.151711	2.305997E+14	0.000419	2386.191369	1.450371E+16	0	0	19.375224	0.671948	0	0
0	0	0	56.457603	6.161556	51.359752	6.161556	2.200764E+14	0.000418	2390.434455	1.445436E+16	0	0	19.383334	0.665755	0	0
0	0	0	56.332153	6.171018	51.177148	6.171018	2.100766E+14	0.000418	2392.593633	1.440746E+16	0	0	19.374778	0.659746	0	0
0	0	0	56.210459	6.180037	51.000004	6.180037	2.002966E+14	0.000417	2396.88959	1.43616E+16	0	0	19.355396	0.653776	0	0
0	0	0	56.086847	6.188186	50.820784	6.188186	1.912208E+14	0.000417	2398.301618	1.431903E+16	0	0	19.305296	0.647703	0	0
0	0	0	55.964623	6.196319	50.643386	6.196319	1.824005E+14	0.000415	2407.861583	1.427767E+16	0	0	19.31362	0.64163	0	0
0	0	0	55.841542	6.204	50.465056	6.204	1.740591E+14	0.000415	2411.951779	1.423855E+16	0	0	19.302458	0.635389	0	0
0	0	0	55.721891	6.211015	50.291976	6.211015	1.660257E+14	0.000413	2418.456601	1.420087E+16	0	0	19.316336	0.629395	0	0
0	0	0	55.595705	6.218228	50.109492	6.218228	1.585551E+14	0.000412	2427.021678	1.416583E+16	0	0	19.320272	0.623761	0	0
0	0	0	55.47095	6.22487	49.929396	6.22487	1.51024E+14	0.000411	2434.271628	1.413051E+16	0	0	19.283404	0.61823	0	0
0	0	0	55.355546	6.231047	49.762677	6.231047	1.439147E+14	0.000409	2444.587503	1.409717E+16	0	0	19.222038	0.612684	0	0
0	0	0	55.232301	6.237359	49.584789	6.237359	1.376242E+14	0.000408	2449.404883	1.406767E+16	0	0	19.21999	0.606922	0	0
0	0	0	55.115345	6.242934	49.416264	6.242934	1.311975E+14	0.000407	2454.797551	1.403753E+16	0	0	19.229386	0.601064	0	0
0	0	0	54.998593	6.248439	49.248006	6.248439	1.253658E+14	0.000406	2463.05021	1.401018E+16	0	0	19.239947	0.595613	0	0
0	0	0	54.876042	6.253735	49.071751	6.253735	1.197933E+14	0.000405	2468.151578	1.398405E+16	0	0	19.210105	0.590226	0	0
0	0	0	54.762272	6.258475	48.908214	6.258475	1.142009E+14	0.000403	2478.544676	1.395782E+16	0	0	19.154657	0.5848	0	0
0	0	0	54.642375	6.2633	48.735959	6.2633	1.092351E+14	0.000402	2487.858851	1.393453E+16	0	0	19.133008	0.579397	0	0
0	0	0	54.527461	6.267721	48.570985	6.267721	1.042278E+14	0.0004	2497.113833	1.391105E+16	0	0	19.128157	0.57377	0	0
0	0	0	54.410873	6.272326	48.403428	6.272326	9.96374E+13	0.000399	2506.446401	1.388952E+16	0	0	19.122745	0.56832	0	0
0	0	0	54.288853	6.27649	48.228625	6.27649	9.518046E+13	0.000399	2508.576509	1.386862E+16	0	0	19.133432	0.563124	0	0
0	0	0	54.175654	6.28048	48.066276	6.28048	9.07231E+13	0.000396	2522.494291	1.384771E+16	0	0	19.085516	0.558096	0	0
0	0	0	54.055309	6.284281	47.894047	6.284281	8.676966E+13	0.000396	2527.873518	1.382917E+16	0	0	19.020459	0.553029	0	0
0	0	0	53.93921	6.287684	47.728101	6.287684	8.27504E+13	0.000394	2541.237516	1.381032E+16	0	0	19.004757	0.547865	0	0
0	0	0	53.823438	6.291439	47.562213	6.291439	7.904502E+13	0.000391	2557.801747	1.379294E+16	0	0	19.007876	0.542502	0	0
0	0	0	53.70248	6.294462	47.389737	6.294462	7.551127E+13	0.000391	2559.060133	1.377637E+16	0	0	19.017752	0.53757	0	0
0	0	0	53.58969	6.297816	47.228324	6.297816	7.198393E+13	0.000387	2584.420154	1.375983E+16	0	0	18.986385	0.53275	0	0
0	0	0	53.468609	6.300866	47.055555	6.300866	6.884005E+13	0.000387	2586.389587	1.374508E+16	0	0	18.935035	0.527866	0	0
0	0	0	53.354267	6.303717	46.892386	6.303717	6.56145E+13	0.000384	2602.795465	1.372996E+16	0	0	18.908133	0.52295	0	0
0	0	0	53.232492	6.306687	46.718635	6.306687	6.270447E+13	0.000382	2615.251854	1.371631E+16	0	0	18.892315	0.517794	0	0
0	0	0	53.108839	6.309153	46.542728	6.309153	5.97443E+13	0.000381	2626.42895	1.370242E+16	0	0	18.875867	0.512822	0	0
0	0	0	52.995762	6.311625	46.381607	6.311625	5.687874E+13	0.000377	2655.450131	1.368899E+16	0	0	18.876172	0.508305	0	0
0	0	0	52.874682	6.314267	46.209046	6.314267	5.437661E+13	0.000375	2669.37458	1.367725E+16	0	0	18.79138	0.503621	0	0
0	0	0	52.755235	6.316452	46.039221	6.316452	5.181719E+13	0.000373	2679.745307	1.366525E+16	0	0	18.767459	0.499096	0	0
0	0	0	52.638361	6.31875	45.872851	6.31875	4.940842E+13	0.00037	2705.055631	1.365395E+16	0	0	18.766162	0.49418	0	0
0	0	0	52.51532	6.321053	45.69779	6.321053	4.715826E+13	0.000368	2718.053392	1.36434E+16	0	0	18.764075	0.489567	0	0
0	0	0	52.397425	6.323107	45.530183	6.323107	4.489836E+13	0.000366	2732.652078	1.36328E+16	0	0	18.743507	0.485353	0	0
0	0	0	52.276099	6.324996	45.357914	6.324996	4.283319E+13	0.000364	2750.166285	1.362311E+16	0	0	18.690748	0.481083	0	0
0	0	0	52.154324	6.326964	45.184896	6.326964	4.08057E+13	0.00036	2776.572425	1.361361E+16	0	0	18.628329	0.476878	0	0
0	0	0	52.032141	6.32889	45.011323	6.32889	3.886595E+13	0.000358	2794.473377	1.360451E+16	0	0	18.625658	0.472185	0	0
0	0	0	51.909713	6.330714	44.837489	6.330714	3.701121E+13	0.000356	2810.564908	1.359581E+16	0	0	18.624176	0.467915	0	0
0	0	0	51.784386	6.33259	44.659499	6.33259	3.524048E+13	0.000354	2828.475575	1.358751E+16	0	0	18.594278	0.463957	0	0
0	0	0	51.657874	6.334008	44.480336	6.334008	3.351453E+13	0.000352	2840.783675	1.357941E+16	0	0	18.517564	0.460094	0	0
0	0	0	51.541367	6.335722	44.314856	6.335722	3.185707E+13	0.000347	2882.581078	1.357164E+16	0	0	18.476591	0.455944	0	0
0	0	0	51.410527	6.337263	44.129428	6.337263	3.040254E+13	0.000346	2886.160128	1.356482E+16	0	0	18.505056	0.451547	0	0
0	0	0	51.284587	6.33853	43.951172	6.33853	2.884731E+13	0.000343	2914.532532	1.355752E+16	0	0	18.511245	0.447453	0	0
0	0	0	51.155992	6.340086	43.768831	6.340086	2.742482E+13	0.000338	2955.675217	1.355085E+16	0	0	18.44793	0.443606	0	0
0	0	0	51.02066	6.341681	43.576958	6.341681	2.604406E+13	0.000337	2970.077423	1.354438E+16	0	0	18.392568	0.439863	0	0
0	0	0	50.887247	6.343	43.388079	6.343	2.466534E+13	0.000335	2982.008044	1.353791E+16	0	0	18.341855	0.435833	0	0
0	0	0	50.751465	6.343958	43.196282	6.343958	2.337705E+13	0.000332	3011.936394	1.353187E+16	0	0	18.339282	0.431763	0	0
0	0	0	50.61797	6.34537	43.007135	6.34537	2.213445E+13	0.000325	3077.906871	1.352604E+16	0	0	18.327438	0.428068	0	0
0	0	0	50.478023	6.346342	42.809435	6.346342	2.097672E+13	0.000324	3087.452158	1.352061E+16	0	0	18.264499	0.424389	0	0
0	0	0	50.341425	6.34738	42.616339	6.34738	1.982755E+13	0.000317	3149.642648	1.351522E+16	0	0	18.200526	0.420726	0	0
0	0	0	50.196659	6.348483	42.411675	6.348483	1.876623E+13	0.000313	3195.941538	1.351024E+16	0	0	18.210614	0.416791	0	0
0	0	0	50.054793	6.349312	42.211402	6.349312	1.770302E+13	0.000309	3239.524393	1.350526E+16	0	0	18.218078	0.412985	0	0
0	0	0	49.905576	6.350483	42.000362	6.350483	1.671923E+13	0.000302	3312.05308	1.350064E+16	0	0	18.181596	0.409521	0	0
0	0	0	49.757829	6.351306	41.791803	6.351306	1.574308E+13	0.000299	3340.103886	1.349606E+16	0	0	18.073066	0.406121	0	0
0	0	0	49.603957	6.352116	41.574639	6.352116	1.483242E+13	0.000293	3413.062019	1.349179E+16	0	0	18.035908	0.402426	0	0
0	0	0	49.446777	6.352933	41.352805	6.352933	1.39397E+13	0.000286	3493.162295	1.348761E+16	0	0	18.031419	0.398508	0	0
0	0	0	49.284737	6.353713	41.124174	6.353713	1.308298E+13	0.00028	3573.229927	1.348359E+16	0	0	18.00647	0.395244	0	0
0	0	0	49.116858	6.354771	40.886963	6.354771	1.225463E+13	0.000273	3663.10494	1.34797E+16	0	0	17.927617	0.392115	0	0
0	0	0	48.947836	6.355545	40.648495	6.355545	1.145149E+13	0.00027	3699.872531	1.347594E+16	0	0	17.88027	0.388732	0	0
0	0	0	48.774933	6.356153	40.404778	6.356153	1.069584E+13	0.000264	3788.85091	1.347239E+16	0	0	17.926361	0.385108	0	0
0	0	0	48.595497	6.356712	40.151932	6.356712	9.974237E+12	0.000255	3917.856538	1.346901E+16	0	0	17.912671	0.381788	0	0
0	0	0	48.416021	6.357567	39.898619	6.357567	9.276634E+12	0.000246	4068.873797	1.346574E+16	0	0	17.838781	0.378788	0	0
0	0	0	48.23442	6.35814	39.642685	6.35814	8.627534E+12	0.000242	4138.925911	1.346269E+16	0	0	17.773359	0.375611	0	0
0	0	0	48.048124	6.358905	39.379875	6.358905	8.016841E+12	0.000233	4284.04914	1.345983E+16	0	0	17.772294	0.372028	0	0
0	0	0	47.850597	6.359335	39.101728	6.359335	7.43513E+12	0.000229	4373.893463	1.34571E+16	0	0	17.785993	0.368852	0	0
0	0	0	47.650988	6.359598	38.820877	6.359598	6.864278E+12	0.000218	4588.409246	1.345442E+16	0	0	17.719066	0.366011	0	0
0	0	0	47.438964	6.360278	38.521989	6.360278	6.331821E+12	0.000205	4875.594335	1.345193E+16	0	0	17.620024	0.362946	0	0
0	0	0	47.213506	6.360786	38.204446	6.360786	5.81132E+12	0.000199	5033.557819	1.344949E+16	0	0	17.642387	0.359435	0	0
0	0	0	46.97796	6.361342	37.872645	6.361342	5.304606E+12	0.000189	5286.100046	1.344711E+16	0	0	17.641343	0.356282	0	0
0	0	0	46.727918	6.361943	37.520388	6.361943	4.822273E+12	0.00018	5540.378625	1.344485E+16	0	0	17.553307	0.353593	0	0
0	0	0	46.469708	6.362284	37.157015	6.362284	4.358079E+12	0.000172	5801.58492	1.344267E+16	0	0	17.487259	0.350584	0	0
0	0	0	46.198635	6.36281	36.775279	6.36281	3.925506E+12	0.00016	6234.171183	1.344064E+16	0	0	17.485099	0.347097	0	0
0	0	0	45.914535	6.363312	36.375252	6.363312	3.517445E+12	0.000151	6601.256365	1.343873E+16	0	0	17.490285	0.3442	0	0
0	0	0	45.618183	6.363685	35.958184	6.363685	3.135173E+12	0.000142	7024.842658	1.343694E+16	0	0	17.396116	0.341502	0	0
0	0	0	45.300189	6.364255	35.51038	6.364255	2.780573E+12	0.000132	7601.011891	1.343527E+16	0	0	17.329875	0.338605	0	0
0	0	0	44.963083	6.364563	35.036099	6.364563	2.444519E+12	0.000124	8090.721124	1.34337E+16	0	0	17.379545	0.335301	0	0
0	0	0	44.599474	6.364727	34.524783	6.364727	2.132474E+12	0.000112	8929.946231	1.343223E+16	0	0	17.310486	0.332748	0	0
0	0	0	44.214916	6.365125	33.983637	6.365125	1.840367E+12	9.866079E-5	10135.738497	1.343086E+16	0	0	17.202295	0.330066	0	0
0	0	0	43.810756	6.365446	33.415046	6.365446	1.574825E+12	8.894967E-5	11242.312148	1.342962E+16	0	0	17.196495	0.326962	0	0
0	0	0	43.388138	6.365908	32.820261	6.365908	1.336918E+12	7.892776E-5	12669.812937	1.34285E+16	0	0	17.228288	0.324009	0	0
0	0	0	42.946776	6.36644	32.198985	6.36644	1.126479E+12	7.112494E-5	14059.76505	1.342751E+16	0	0	17.140835	0.321599	0	0
0	0	0	42.487038	6.366742	31.552244	6.366742	9.419694E+11	6.464578E-5	15468.914216	1.342665E+16	0	0	17.018983	0.318997	0	0
0	0	0	42.018479	6.366787	30.893535	6.366787	7.81828E+11	5.644347E-5	17716.840522	1.34259E+16	0	0	17.047974	0.315813	0	0
0	0	0	41.510839	6.367246	30.179151	6.367246	6.465897E+11	4.703868E-5	21259.098378	1.342526E+16	0	0	17.041081	0.313363	0	0
0	0	0	40.982455	6.367343	29.436234	6.367343	5.263356E+11	4.160496E-5	24035.596686	1.34247E+16	0	0	16.914166	0.311048	0	0
0	0	0	40.43014	6.367827	28.658957	6.367827	4.248555E+11	3.420762E-5	29233.249612	1.342422E+16	0	0	16.879769	0.308199	0	0
0	0	0	39.847606	6.36797	27.839808	6.36797	3.396281E+11	3.014212E-5	33176.169414	1.342382E+16	0	0	16.90874	0.305366	0	0
0	0	0	39.23326	6.368287	26.975593	6.368287	2.681902E+11	2.454146E-5	40747.377898	1.342349E+16	0	0	16.816958	0.303092	0	0
0	0	0	38.584653	6.368398	26.063594	6.368398	2.090639E+11	2.055322E-5	48654.171655	1.342321E+16	0	0	16.73993	0.300538	0	0
0	0	0	37.912074	6.368635	25.117637	6.368635	1.60724E+11	1.622363E-5	61638.494386	1.342299E+16	0	0	16.788729	0.297513	0	0
0	0	0	37.225652	6.369117	24.151694	6.369117	1.223659E+11	1.309721E-5	76352.156236	1.342281E+16	0	0	16.729895	0.295422	0	0
0	0	0	36.524447	6.369541	23.165049	6.369541	9.26405E+10	1.130524E-5	88454.550341	1.342267E+16	0	0	16.601538	0.293076	0	0
0	0	0	35.811848	6.369412	22.163533	6.369412	6.971681E+10	9.703335E-6	103057.35467	1.342256E+16	0	0	16.603885	0.290139	0	0
0	0	0	35.087612	6.36953	21.145128	6.36953	5.222364E+10	6.971281E-6	143445.65835	1.342248E+16	0	0	16.61399	0.287761	0	0
0	0	0	34.358678	6.369717	20.119954	6.369717	3.89356E+10	5.399014E-6	185218.995902	1.342241E+16	0	0	16.468913	0.28567	0	0
0	0	0	33.62995	6.369889	19.095085	6.369889	2.897339E+10	4.28213E-6	233528.631023	1.342237E+16	0	0	16.462374	0.28298	0	0
0	0	0	32.901915	6.370166	18.07093	6.370166	2.156191E+10	3.392226E-6	294791.686441	1.342233E+16	0	0	16.498988	0.280578	0	0
0	0	0	32.163753	6.370196	17.0331	6.370196	1.605081E+10	2.818108E-6	354848.034754	1.342231E+16	0	0	16.352294	0.278727	0	0
0	0	0	31.41338	6.370564	15.97728	6.370564	1.189936E+10	2.115459E-6	472710.683147	1.342229E+16	0	0	16.31219	0.275941	0	0
0	0	0	30.658965	6.370459	14.916912	6.370459	8.778085E+9	1.849009E-6	540830.208062	1.342227E+16	0	0	16.351589	0.273579	0	0
