Vload_(V)	ILoad_(A)	RsLoad_(ohm)	SunsVoc_Voltage_(V)	SunsVoc_Current_(A)	Model_Voltage_(V)	Model_Current_(A)	Carrier_Density_(cm-3)	Lifetime_(s)	Inverse_Lifetime_(s-1)	(Carrier_Density+Doping)/qWni^2_(cm^2/C)	Carrier_Density_at_Vmp_(cm-3)	Lifetime_at_Vmp_(s)	Efficiency_(%)	Intensity_(suns)	Dark_IV_Voltage_(V)	Dark_IV_Current_(A)
3.528503	5.921656	0	51.977263	0.288415	51.715075	0.288415	8.137178E+15	0.000637	1460.199947	7.40728E+16	2.046117E+14	0.000633	18.283385	1.144017	0	0
3.528677	5.924026	-0.663843	51.853446	0.610292	51.302953	0.610292	7.979256E+15	0.000608	1540.168299	7.333217E+16	0	0	18.289918	1.140776	0	0
3.811996	5.923796	-0.702817	51.724443	0.933299	50.889444	0.933299	7.685872E+15	0.000607	1549.559639	7.195623E+16	0	0	18.232076	1.13463	0	0
6.644549	5.921117	2.943044	51.604915	1.241999	50.502176	1.241999	7.349432E+15	0.000616	1534.928047	7.037838E+16	0	0	18.206066	1.13103	0	0
11.092739	5.914767	3.909758	51.473421	1.536491	50.120708	1.536491	7.01203E+15	0.000625	1517.591055	6.8796E+16	0	0	18.215061	1.127941	0	0
14.848442	5.912195	3.508794	51.342989	1.809198	49.763614	1.809198	6.710997E+15	0.000638	1492.778813	6.73842E+16	0	0	18.230591	1.122904	0	0
18.522687	5.906739	3.194879	51.216885	2.069357	49.425249	2.069357	6.392305E+15	0.000648	1474.297784	6.588957E+16	0	0	18.195975	1.114618	0	0
22.418412	5.886309	3.034924	51.080042	2.309537	49.098443	2.309537	6.088693E+15	0.000659	1456.801308	6.446567E+16	0	0	18.141344	1.106357	0	0
26.862097	5.881082	2.351463	50.949937	2.535466	48.79326	2.535466	5.80662E+15	0.000671	1435.410557	6.314279E+16	0	0	18.112465	1.098925	0	0
31.334073	5.87858	1.621757	50.819423	2.750024	48.500666	2.750024	5.512863E+15	0.000679	1422.461848	6.17651E+16	0	0	18.136567	1.089506	0	0
35.776372	5.857073	1.062599	50.691727	2.945551	48.22951	2.945551	5.245094E+15	0.000689	1405.607722	6.05093E+16	0	0	18.157496	1.078052	0	0
36.836544	5.850099	0.928931	50.56252	3.125118	47.973178	3.125118	4.987401E+15	0.0007	1388.262131	5.930076E+16	0	0	18.164372	1.066485	0	0
37.962399	5.858903	0.67544	50.436743	3.292341	47.732411	3.292341	4.745516E+15	0.000709	1372.414428	5.816635E+16	0	0	18.17853	1.055997	0	0
39.088465	5.855782	0.505936	50.309946	3.449589	47.501338	3.449589	4.510752E+15	0.000718	1359.906594	5.706533E+16	0	0	18.171672	1.04625	0	0
40.268508	5.871644	0.1746	50.186456	3.595436	47.284367	3.595436	4.291558E+15	0.000726	1346.698682	5.603734E+16	0	0	18.194185	1.035562	0	0
41.381333	5.778495	0.456087	50.063048	3.733395	47.075822	3.733395	4.079616E+15	0.000734	1334.547062	5.504336E+16	0	0	18.17527	1.024642	0	0
42.437287	5.632598	0.573083	49.936658	3.859438	46.876338	3.859438	3.881643E+15	0.000742	1322.173556	5.411489E+16	0	0	18.159918	1.014353	0	0
43.574048	5.411782	0.622629	49.818028	3.975843	46.692243	3.975843	3.691861E+15	0.000751	1309.808782	5.322484E+16	0	0	18.205163	1.004	0	0
44.568359	5.159185	0.629125	49.694293	4.086992	46.509899	4.086992	3.505584E+15	0.000756	1302.010459	5.235122E+16	0	0	18.236645	0.993296	0	0
45.604112	4.793265	0.635836	49.570027	4.191802	46.333612	4.191802	3.337956E+15	0.000763	1291.929764	5.156507E+16	0	0	18.278045	0.982488	0	0
46.600692	4.312996	0.648962	49.449396	4.290061	46.166564	4.290061	3.170324E+15	0.000769	1284.217791	5.07789E+16	0	0	18.290904	0.972311	0	0
47.578346	3.66401	0.688624	49.328112	4.381701	46.005395	4.381701	3.009146E+15	0.000774	1277.253206	5.002299E+16	0	0	18.299226	0.963059	0	0
48.492913	3.058127	0.687219	49.204908	4.467429	45.848503	4.467429	2.859338E+15	0.00078	1269.168344	4.932041E+16	0	0	18.313999	0.953919	0	0
49.334661	2.297515	0.767943	49.083623	4.547933	45.698122	4.547933	2.715117E+15	0.000784	1262.766061	4.864404E+16	0	0	18.288365	0.944788	0	0
50.110022	1.582702	0.866464	48.963604	4.623606	45.553349	4.623606	2.574969E+15	0.000788	1258.550539	4.798676E+16	0	0	18.287884	0.93572	0	0
50.746276	0.950418	1.045527	48.841993	4.694197	45.412155	4.694197	2.443056E+15	0.000791	1254.123133	4.73681E+16	0	0	18.307642	0.927203	0	0
51.265559	0.464057	1.341325	48.721852	4.759816	45.27661	4.759816	2.318233E+15	0.000794	1249.790509	4.67827E+16	0	0	18.326347	0.918366	0	0
42.75404	5.57903	0.591587	48.604732	4.822374	45.146348	4.822374	2.197359E+15	0.000796	1247.719366	4.621582E+16	0	0	18.404587	0.909562	0	0
52.073308	0	0	48.484264	4.881491	45.016948	4.881491	2.083298E+15	0.000798	1246.475567	4.568089E+16	0	0	18.397535	0.900782	0	0
0	0	0	48.36984	4.937178	44.895115	4.937178	1.977054E+15	0.0008	1243.432653	4.518261E+16	0	0	18.42578	0.892855	0	0
0	0	0	48.252476	4.988959	44.774627	4.988959	1.872692E+15	0.000801	1242.792182	4.469317E+16	0	0	18.370147	0.88512	0	0
0	0	0	48.138174	5.03874	44.658395	5.03874	1.778028E+15	0.000803	1239.437176	4.424921E+16	0	0	18.359712	0.877138	0	0
0	0	0	48.018441	5.087252	44.53982	5.087252	1.68529E+15	0.000804	1239.393524	4.381428E+16	0	0	18.340588	0.868964	0	0
0	0	0	47.90414	5.130988	44.428984	5.130988	1.599067E+15	0.000806	1236.964162	4.340991E+16	0	0	18.390235	0.86024	0	0
0	0	0	47.790655	5.173036	44.320426	5.173036	1.512926E+15	0.000807	1235.998185	4.300591E+16	0	0	18.433129	0.851635	0	0
0	0	0	47.674801	5.212167	44.212683	5.212167	1.434536E+15	0.000807	1235.593102	4.263828E+16	0	0	18.451458	0.843613	0	0
0	0	0	47.563481	5.247515	44.111124	5.247515	1.360285E+15	0.000808	1234.080669	4.229005E+16	0	0	18.461693	0.836053	0	0
0	0	0	47.450649	5.281332	44.009953	5.281332	1.288027E+15	0.000808	1235.507569	4.195117E+16	0	0	18.401124	0.828678	0	0
0	0	0	47.338798	5.312922	43.911336	5.312922	1.221844E+15	0.000806	1237.823369	4.164078E+16	0	0	18.413882	0.82147	0	0
0	0	0	47.227314	5.342803	43.814469	5.342803	1.157886E+15	0.000804	1240.932331	4.134082E+16	0	0	18.386603	0.813903	0	0
0	0	0	47.11922	5.371774	43.720911	5.371774	1.097471E+15	0.000802	1244.886343	4.105748E+16	0	0	18.422812	0.806008	0	0
0	0	0	47.005816	5.398619	43.625362	5.398619	1.040101E+15	0.000799	1249.284183	4.078842E+16	0	0	18.421195	0.79805	0	0
0	0	0	46.900785	5.424007	43.53685	5.424007	9.870825E+14	0.000799	1250.682573	4.053978E+16	0	0	18.462927	0.790355	0	0
0	0	0	46.784931	5.448394	43.44179	5.448394	9.341125E+14	0.000794	1257.260729	4.029135E+16	0	0	18.482271	0.783139	0	0
0	0	0	46.679573	5.470991	43.355366	5.470991	8.8738E+14	0.000793	1259.375011	4.007218E+16	0	0	18.401607	0.776298	0	0
0	0	0	46.570213	5.493116	43.266746	5.493116	8.383229E+14	0.000788	1267.894257	3.984211E+16	0	0	18.366771	0.769681	0	0
0	0	0	46.460852	5.512965	43.179756	5.512965	7.958864E+14	0.000786	1271.850626	3.964309E+16	0	0	18.335655	0.762537	0	0
0	0	0	46.351124	5.531863	43.093321	5.531863	7.539403E+14	0.000783	1276.807058	3.944637E+16	0	0	18.379928	0.755241	0	0
0	0	0	46.239804	5.550565	43.006146	5.550565	7.140474E+14	0.000777	1285.801676	3.925928E+16	0	0	18.385701	0.747586	0	0
0	0	0	46.127381	5.568405	42.918952	5.568405	6.759969E+14	0.000771	1295.468706	3.908082E+16	0	0	18.415489	0.740107	0	0
0	0	0	46.022676	5.584883	42.838028	5.584883	6.3933E+14	0.000766	1304.130491	3.890886E+16	0	0	18.432118	0.733138	0	0
0	0	0	45.911927	5.601125	42.753316	5.601125	6.041917E+14	0.000761	1313.71201	3.874407E+16	0	0	18.376334	0.726736	0	0
0	0	0	45.805221	5.615672	42.672505	5.615672	5.731003E+14	0.000757	1320.443024	3.859825E+16	0	0	18.369008	0.720518	0	0
0	0	0	45.699331	5.629659	42.592734	5.629659	5.418537E+14	0.000752	1329.2942	3.845171E+16	0	0	18.305535	0.714132	0	0
0	0	0	45.58895	5.643117	42.51037	5.643117	5.132715E+14	0.000746	1339.684495	3.831766E+16	0	0	18.312644	0.707347	0	0
0	0	0	45.484286	5.655845	42.432447	5.655845	4.863204E+14	0.000741	1349.340623	3.819127E+16	0	0	18.333676	0.700147	0	0
0	0	0	45.376232	5.667821	42.352781	5.667821	4.596556E+14	0.000734	1361.861957	3.806621E+16	0	0	18.358615	0.693171	0	0
0	0	0	45.271405	5.679375	42.275668	5.679375	4.356586E+14	0.000729	1371.256158	3.795367E+16	0	0	18.362	0.686617	0	0
0	0	0	45.163065	5.689834	42.196888	5.689834	4.121379E+14	0.000722	1384.244796	3.784336E+16	0	0	18.30815	0.680519	0	0
0	0	0	45.060198	5.700299	42.121932	5.700299	3.904805E+14	0.000717	1394.548294	3.774179E+16	0	0	18.305367	0.674492	0	0
0	0	0	44.946509	5.71058	42.039887	5.71058	3.692428E+14	0.000709	1411.124584	3.764219E+16	0	0	18.196284	0.668426	0	0
0	0	0	44.844907	5.719651	41.966736	5.719651	3.501052E+14	0.000704	1421.098676	3.755243E+16	0	0	18.219478	0.661896	0	0
0	0	0	44.735915	5.728989	41.888576	5.728989	3.300624E+14	0.000696	1437.411975	3.745844E+16	0	0	18.225167	0.655239	0	0
0	0	0	44.630352	5.737031	41.813478	5.737031	3.130884E+14	0.000689	1450.23316	3.737883E+16	0	0	18.263768	0.648566	0	0
0	0	0	44.526505	5.745319	41.739512	5.745319	2.958155E+14	0.000683	1463.978935	3.729782E+16	0	0	18.302337	0.642188	0	0
0	0	0	44.416573	5.752902	41.661888	5.752902	2.799653E+14	0.000675	1482.315324	3.722349E+16	0	0	18.208223	0.636553	0	0
0	0	0	44.314032	5.759944	41.589585	5.759944	2.651758E+14	0.000669	1494.751095	3.715413E+16	0	0	18.214941	0.630813	0	0
0	0	0	44.206877	5.767425	41.514058	5.767425	2.50345E+14	0.00066	1515.222385	3.708457E+16	0	0	18.110513	0.625425	0	0
0	0	0	44.102172	5.774031	41.44067	5.774031	2.372388E+14	0.000653	1532.225203	3.702311E+16	0	0	18.11507	0.619423	0	0
0	0	0	43.99567	5.78003	41.366432	5.78003	2.242558E+14	0.000647	1545.957126	3.696222E+16	0	0	18.110223	0.61342	0	0
0	0	0	43.8888	5.786131	41.291974	5.786131	2.122387E+14	0.00064	1563.534125	3.690586E+16	0	0	18.103482	0.60705	0	0
0	0	0	43.777929	5.79203	41.214997	5.79203	2.006599E+14	0.00063	1586.565017	3.685156E+16	0	0	18.153951	0.60096	0	0
0	0	0	43.674408	5.797535	41.143192	5.797535	1.896615E+14	0.000623	1606.258696	3.679997E+16	0	0	18.060758	0.595588	0	0
0	0	0	43.569581	5.802932	41.070622	5.802932	1.78874E+14	0.000614	1629.013022	3.674938E+16	0	0	18.063943	0.590304	0	0
0	0	0	43.461037	5.807678	40.995906	5.807678	1.693449E+14	0.000607	1647.608615	3.670469E+16	0	0	17.973778	0.585275	0	0
0	0	0	43.360252	5.812297	40.926494	5.812297	1.602025E+14	0.0006	1665.902884	3.666182E+16	0	0	17.995292	0.579927	0	0
0	0	0	43.247421	5.817092	40.849003	5.817092	1.512461E+14	0.00059	1694.022322	3.661981E+16	0	0	17.951949	0.574355	0	0
0	0	0	43.144186	5.821237	40.778255	5.821237	1.433709E+14	0.000583	1714.660645	3.658288E+16	0	0	17.922896	0.568488	0	0
0	0	0	43.036949	5.825593	40.704797	5.825593	1.350318E+14	0.000574	1740.728367	3.654377E+16	0	0	17.998404	0.562845	0	0
0	0	0	42.930978	5.829603	40.632374	5.829603	1.278209E+14	0.000566	1766.032726	3.650995E+16	0	0	17.945567	0.557864	0	0
0	0	0	42.824803	5.833182	40.560029	5.833182	1.207317E+14	0.000559	1788.628448	3.64767E+16	0	0	17.960327	0.553314	0	0
0	0	0	42.718628	5.836778	40.487723	5.836778	1.14107E+14	0.000551	1813.483826	3.644563E+16	0	0	17.795709	0.548947	0	0
0	0	0	42.606981	5.840318	40.411826	5.840318	1.078293E+14	0.000542	1844.440355	3.641619E+16	0	0	17.765969	0.544142	0	0
0	0	0	42.502072	5.843584	40.340574	5.843584	1.018924E+14	0.000534	1872.590633	3.638835E+16	0	0	17.752758	0.538954	0	0
0	0	0	42.397489	5.846982	40.26953	5.846982	9.599764E+13	0.000525	1904.687658	3.63607E+16	0	0	17.777795	0.533342	0	0
0	0	0	42.295928	5.849714	40.200782	5.849714	9.076618E+13	0.000517	1933.571154	3.633617E+16	0	0	17.820204	0.528297	0	0
0	0	0	42.192939	5.85271	40.131018	5.85271	8.583172E+13	0.000511	1955.732018	3.631303E+16	0	0	17.722982	0.523372	0	0
0	0	0	42.080148	5.855123	40.054957	5.855123	8.129409E+13	0.000503	1989.352208	3.629175E+16	0	0	17.746831	0.519253	0	0
0	0	0	41.974585	5.857947	39.983605	5.857947	7.693512E+13	0.000496	2014.528344	3.62713E+16	0	0	17.642145	0.515119	0	0
0	0	0	41.862448	5.860325	39.908054	5.860325	7.242657E+13	0.000484	2065.059835	3.625016E+16	0	0	17.580684	0.510744	0	0
0	0	0	41.752679	5.862703	39.834112	5.862703	6.844453E+13	0.000478	2092.427998	3.623148E+16	0	0	17.554749	0.505883	0	0
0	0	0	41.634498	5.865292	39.754527	5.865292	6.445204E+13	0.000467	2139.129823	3.621276E+16	0	0	17.519557	0.500575	0	0
0	0	0	41.525669	5.867301	39.681389	5.867301	6.076779E+13	0.000459	2180.823174	3.619548E+16	0	0	17.599677	0.495546	0	0
0	0	0	41.409775	5.869636	39.603469	5.869636	5.703456E+13	0.00045	2221.535412	3.617797E+16	0	0	17.522605	0.4911	0	0
0	0	0	41.300863	5.871667	39.530322	5.871667	5.379852E+13	0.00044	2271.240828	3.616279E+16	0	0	17.483125	0.487237	0	0
0	0	0	41.184602	5.873773	39.452284	5.873773	5.055273E+13	0.000432	2313.23229	3.614757E+16	0	0	17.400382	0.483381	0	0
0	0	0	41.074833	5.875469	39.378714	5.875469	4.768012E+13	0.000424	2356.841712	3.61341E+16	0	0	17.330633	0.479103	0	0
0	0	0	40.958285	5.877254	39.300629	5.877254	4.479249E+13	0.000416	2403.105925	3.612056E+16	0	0	17.299418	0.474569	0	0
0	0	0	40.840512	5.879103	39.221735	5.879103	4.222595E+13	0.000407	2458.838164	3.610852E+16	0	0	17.274325	0.469612	0	0
0	0	0	40.727273	5.880863	39.145905	5.880863	3.966087E+13	0.000397	2516.714183	3.609649E+16	0	0	17.324633	0.465277	0	0
0	0	0	40.607213	5.882351	39.065632	5.882351	3.722631E+13	0.000389	2569.639729	3.608507E+16	0	0	17.248836	0.461206	0	0
0	0	0	40.492013	5.883844	38.988611	5.883844	3.502586E+13	0.000382	2618.14756	3.607475E+16	0	0	17.190526	0.45779	0	0
0	0	0	40.372076	5.885018	38.908538	5.885018	3.283417E+13	0.000372	2691.023934	3.606447E+16	0	0	17.134189	0.454238	0	0
0	0	0	40.247729	5.886744	38.825415	5.886744	3.085972E+13	0.000363	2754.428964	3.605521E+16	0	0	17.056259	0.450534	0	0
0	0	0	40.129752	5.888141	38.746629	5.888141	2.892966E+13	0.000351	2846.975427	3.604616E+16	0	0	17.052763	0.446072	0	0
0	0	0	40.004955	5.889473	38.663343	5.889473	2.705553E+13	0.000345	2900.739208	3.603737E+16	0	0	17.053861	0.44165	0	0
0	0	0	39.881914	5.890698	38.581266	5.890698	2.538942E+13	0.000337	2967.41797	3.602956E+16	0	0	17.076233	0.437467	0	0
0	0	0	39.758833	5.891919	38.499181	5.891919	2.373818E+13	0.000328	3047.745996	3.602182E+16	0	0	16.993058	0.433891	0	0
0	0	0	39.630647	5.893212	38.413704	5.893212	2.221505E+13	0.000319	3132.702329	3.601467E+16	0	0	16.953237	0.430563	0	0
0	0	0	39.503604	5.894292	38.329049	5.894292	2.078892E+13	0.000311	3215.620563	3.600798E+16	0	0	16.845985	0.427338	0	0
0	0	0	39.370844	5.895415	38.240603	5.895415	1.940065E+13	0.000303	3295.857386	3.600147E+16	0	0	16.794786	0.423514	0	0
0	0	0	39.241474	5.896558	38.154421	5.896558	1.811603E+13	0.000294	3395.592281	3.599545E+16	0	0	16.776872	0.419316	0	0
0	0	0	39.107571	5.897399	38.065298	5.897399	1.68642E+13	0.000286	3497.95301	3.598958E+16	0	0	16.763143	0.415133	0	0
0	0	0	38.975138	5.898405	37.977137	5.898405	1.572743E+13	0.000279	3587.354661	3.598425E+16	0	0	16.765245	0.411349	0	0
0	0	0	38.838662	5.89937	37.886312	5.89937	1.463131E+13	0.000268	3726.888682	3.597911E+16	0	0	16.675827	0.407925	0	0
0	0	0	38.702145	5.90024	37.795489	5.90024	1.362225E+13	0.000261	3836.896457	3.597437E+16	0	0	16.590294	0.405091	0	0
0	0	0	38.565588	5.901166	37.704645	5.901166	1.265503E+13	0.000253	3958.711322	3.596984E+16	0	0	16.474287	0.401906	0	0
0	0	0	38.424824	5.90201	37.611033	5.90201	1.175612E+13	0.000244	4095.234339	3.596562E+16	0	0	16.462651	0.398298	0	0
0	0	0	38.283448	5.902857	37.517027	5.902857	1.092072E+13	0.000237	4217.846401	3.59617E+16	0	0	16.426448	0.394219	0	0
0	0	0	38.141173	5.903203	37.422499	5.903203	1.012161E+13	0.000229	4363.383665	3.595796E+16	0	0	16.446719	0.390388	0	0
0	0	0	37.997183	5.904234	37.32676	5.904234	9.377792E+12	0.000222	4506.401544	3.595447E+16	0	0	16.427398	0.386939	0	0
0	0	0	37.850335	5.904823	37.229186	5.904823	8.684362E+12	0.000209	4776.682239	3.595122E+16	0	0	16.347266	0.384289	0	0
0	0	0	37.702547	5.905448	37.130995	5.905448	8.034708E+12	0.000205	4874.4458	3.594817E+16	0	0	16.223286	0.381472	0	0
0	0	0	37.55378	5.906124	37.03216	5.906124	7.42214E+12	0.000196	5098.25083	3.59453E+16	0	0	16.151374	0.378271	0	0
0	0	0	37.4015	5.906777	36.931006	5.906777	6.852754E+12	0.000188	5316.816868	3.594263E+16	0	0	16.163713	0.374431	0	0
0	0	0	37.248118	5.907427	36.829131	5.907427	6.323665E+12	0.000181	5521.595517	3.594014E+16	0	0	16.158813	0.370704	0	0
0	0	0	37.093633	5.907948	36.726545	5.907948	5.824335E+12	0.000174	5742.674485	3.59378E+16	0	0	16.148528	0.367287	0	0
0	0	0	36.935309	5.908371	36.621424	5.908371	5.361211E+12	0.000168	5966.211002	3.593563E+16	0	0	16.046129	0.364573	0	0
0	0	0	36.771677	5.909067	36.512775	5.909067	4.93195E+12	0.00016	6248.043518	3.593362E+16	0	0	15.964065	0.361915	0	0
0	0	0	36.610944	5.909293	36.406081	5.909293	4.52764E+12	0.000152	6596.189727	3.593172E+16	0	0	15.864337	0.359209	0	0
0	0	0	36.444658	5.910073	36.295689	5.910073	4.144551E+12	0.000146	6828.017051	3.592992E+16	0	0	15.833114	0.355737	0	0
0	0	0	36.282537	5.910238	36.188087	5.910238	3.799808E+12	0.000137	7314.325335	3.592831E+16	0	0	15.825233	0.351841	0	0
0	0	0	36.11282	5.911099	36.075443	5.911099	3.473289E+12	0.000133	7496.55858	3.592678E+16	0	0	15.812212	0.348505	0	0
0	0	0	35.941184	5.911181	35.961539	5.911181	3.181971E+12	0.000124	8066.669879	3.592541E+16	0	0	15.734173	0.345879	0	0
0	0	0	35.769874	5.911769	35.847859	5.911769	2.903136E+12	0.000122	8174.689162	3.59241E+16	0	0	15.656117	0.343396	0	0
0	0	0	35.590765	5.912422	35.729018	5.912422	2.645982E+12	0.000112	8899.643859	3.59229E+16	0	0	15.54093	0.340898	0	0
0	0	0	35.413248	5.912415	35.611224	5.912415	2.412024E+12	0.000109	9215.017625	3.59218E+16	0	0	15.495583	0.337753	0	0
0	0	0	35.233486	5.913196	35.491974	5.913196	2.189498E+12	0.000105	9481.180566	3.592076E+16	0	0	15.46985	0.334217	0	0
0	0	0	35.046862	5.913515	35.368163	5.913515	1.989208E+12	9.575407E-5	10443.419768	3.591982E+16	0	0	15.471584	0.33084	0	0
0	0	0	34.861464	5.91376	35.245167	5.91376	1.805043E+12	9.491119E-5	10536.165182	3.591895E+16	0	0	15.451517	0.32819	0	0
0	0	0	34.670431	5.914012	35.118438	5.914012	1.631863E+12	8.917319E-5	11214.132803	3.591814E+16	0	0	15.325603	0.326003	0	0
0	0	0	34.472128	5.914539	34.986915	5.914539	1.476273E+12	8.317397E-5	12022.991738	3.591741E+16	0	0	15.221247	0.323784	0	0
0	0	0	34.276807	5.914632	34.857339	5.914632	1.331452E+12	7.748798E-5	12905.227299	3.591673E+16	0	0	15.177542	0.320647	0	0
0	0	0	34.076258	5.914757	34.724302	5.914757	1.196128E+12	7.476461E-5	13375.312197	3.59161E+16	0	0	15.180015	0.317278	0	0
0	0	0	33.873423	5.915215	34.58979	5.915215	1.076289E+12	6.816123E-5	14671.09778	3.591553E+16	0	0	15.159783	0.314173	0	0
0	0	0	33.667933	5.91556	34.453513	5.91556	9.657218E+11	6.22661E-5	16060.103423	3.591502E+16	0	0	15.127422	0.311715	0	0
0	0	0	33.458972	5.915939	34.314946	5.915939	8.654419E+11	5.976831E-5	16731.275105	3.591455E+16	0	0	14.982737	0.309743	0	0
0	0	0	33.245969	5.9161	34.173672	5.9161	7.74462E+11	5.651779E-5	17693.544844	3.591412E+16	0	0	14.866731	0.307564	0	0
0	0	0	33.03615	5.916403	34.03454	5.916403	6.917464E+11	5.381988E-5	18580.495786	3.591373E+16	0	0	14.831321	0.30461	0	0
0	0	0	32.825679	5.916562	33.894954	5.916562	6.165156E+11	4.935727E-5	20260.438731	3.591338E+16	0	0	14.817607	0.30113	0	0
0	0	0	32.602792	5.917146	33.747221	5.917146	5.504129E+11	4.661378E-5	21452.883399	3.591307E+16	0	0	14.793296	0.298265	0	0
0	0	0	32.377538	5.917211	33.597824	5.917211	4.912237E+11	4.289291E-5	23313.873842	3.591279E+16	0	0	14.67969	0.296397	0	0
0	0	0	32.144565	5.917651	33.443392	5.917651	4.354671E+11	4.294781E-5	23284.073025	3.591253E+16	0	0	14.535765	0.294649	0	0
0	0	0	31.914778	5.917676	33.290987	5.917676	3.855449E+11	3.858258E-5	25918.435715	3.591229E+16	0	0	14.472341	0.292294	0	0
0	0	0	31.680947	5.917812	33.135929	5.917812	3.399244E+11	3.775083E-5	26489.481677	3.591208E+16	0	0	14.525242	0.288806	0	0
0	0	0	31.445769	5.917974	32.979988	5.917974	3.002183E+11	3.355396E-5	29802.743749	3.591189E+16	0	0	14.546995	0.285764	0	0
0	0	0	31.204752	5.918386	32.820246	5.918386	2.645713E+11	3.061967E-5	32658.748258	3.591173E+16	0	0	14.460003	0.283689	0	0
0	0	0	30.962264	5.918553	32.65947	5.918553	2.329869E+11	2.815084E-5	35522.91739	3.591158E+16	0	0	14.32967	0.28218	0	0
0	0	0	30.717531	5.918517	32.497148	5.918517	2.045264E+11	2.781878E-5	35946.934589	3.591145E+16	0	0	14.221697	0.280233	0	0
0	0	0	30.469652	5.918547	32.33276	5.918547	1.793997E+11	2.572099E-5	38878.748064	3.591133E+16	0	0	14.181117	0.27712	0	0
0	0	0	30.217772	5.918897	32.165825	5.918897	1.571689E+11	2.227488E-5	44893.616235	3.591122E+16	0	0	14.186397	0.273791	0	0
