Vload_(V)	ILoad_(A)	RsLoad_(ohm)	SunsVoc_Voltage_(V)	SunsVoc_Current_(A)	Model_Voltage_(V)	Model_Current_(A)	Carrier_Density_(cm-3)	Lifetime_(s)	Inverse_Lifetime_(s-1)	(Carrier_Density+Doping)/qWni^2_(cm^2/C)	Carrier_Density_at_Vmp_(cm-3)	Lifetime_at_Vmp_(s)	Efficiency_(%)	Intensity_(suns)	Dark_IV_Voltage_(V)	Dark_IV_Current_(A)
3.280695	6.369954	0	65.368386	0.136385	65.304792	0.136385	3.825856E+15	0.000243	4099.303734	3.1365E+16	3.364619E+14	0.000412	19.761778	1.128639	0	0
3.281704	6.370737	-0.610237	65.188868	0.548821	64.932088	0.548821	3.665071E+15	0.000247	4029.327896	3.061094E+16	0	0	19.615298	1.126357	0	0
5.676028	6.366341	4.94499	65.012577	0.940103	64.571255	0.940103	3.497557E+15	0.000252	3944.460442	2.982533E+16	0	0	19.63315	1.121531	0	0
11.338219	6.355621	5.787541	64.835959	1.29866	64.224282	1.29866	3.339363E+15	0.000258	3854.951308	2.908341E+16	0	0	19.525148	1.118931	0	0
15.810408	6.347903	5.363006	64.657993	1.631096	63.887162	1.631096	3.186935E+15	0.000264	3773.850594	2.836855E+16	0	0	19.606419	1.116426	0	0
21.361499	6.346338	4.526714	64.486969	1.935561	63.569317	1.935561	3.039277E+15	0.000269	3698.97845	2.767605E+16	0	0	19.606984	1.111655	0	0
27.602314	6.321955	3.899663	64.318886	2.21958	63.263272	2.21958	2.902807E+15	0.000275	3625.087665	2.703602E+16	0	0	19.684683	1.103687	0	0
33.432888	6.316588	3.028671	64.152558	2.481915	62.968519	2.481915	2.773699E+15	0.000281	3551.764267	2.643052E+16	0	0	19.44599	1.095704	0	0
39.05804	6.327889	2.024285	63.983168	2.726086	62.678548	2.726086	2.650682E+15	0.000286	3482.538887	2.585359E+16	0	0	19.557463	1.088556	0	0
44.876314	6.307199	1.293764	63.818352	2.95295	62.400845	2.95295	2.530097E+15	0.000291	3420.214482	2.528806E+16	0	0	19.596418	1.080207	0	0
46.324622	6.296843	1.135553	63.651248	3.166555	62.126512	3.166555	2.417176E+15	0.000297	3357.837915	2.475847E+16	0	0	19.630297	1.070156	0	0
47.797544	6.268154	1.052929	63.483287	3.363824	61.858553	3.363824	2.306989E+15	0.000302	3298.975155	2.424171E+16	0	0	19.590441	1.060209	0	0
49.216907	6.247833	0.908926	63.321085	3.546797	61.602871	3.546797	2.200467E+15	0.000307	3246.340354	2.374214E+16	0	0	19.543217	1.050714	0	0
50.661227	6.229217	0.742744	63.158147	3.718972	61.351151	3.718972	2.101497E+15	0.000312	3192.898971	2.327798E+16	0	0	19.579748	1.041642	0	0
52.088157	6.196187	0.609795	62.997455	3.878557	61.107391	3.878557	2.005821E+15	0.000318	3141.718966	2.282928E+16	0	0	19.445769	1.0314	0	0
53.538158	6.11112	0.558586	62.835292	4.027629	60.866793	4.027629	1.915027E+15	0.000323	3093.065124	2.240346E+16	0	0	19.523523	1.020841	0	0
54.978829	5.96821	0.530532	62.678031	4.167239	60.635485	4.167239	1.826881E+15	0.000327	3048.761517	2.199007E+16	0	0	19.55803	1.010909	0	0
56.413756	5.729171	0.519313	62.519626	4.294912	60.408468	4.294912	1.744637E+15	0.000332	3002.603734	2.160436E+16	0	0	19.591679	1.001224	0	0
57.813794	5.372725	0.511715	62.363875	4.414311	60.187929	4.414311	1.664924E+15	0.000337	2964.3802	2.123051E+16	0	0	19.637963	0.991356	0	0
59.19286	4.863594	0.505437	62.204408	4.52692	59.966552	4.52692	1.589517E+15	0.000341	2926.695234	2.087686E+16	0	0	19.560501	0.981147	0	0
60.534018	4.183238	0.50118	62.051026	4.632426	59.754712	4.632426	1.515274E+15	0.000345	2893.647097	2.052867E+16	0	0	19.470058	0.971199	0	0
61.797669	3.356234	0.496548	61.895724	4.731123	59.54397	4.731123	1.446607E+15	0.000349	2857.778987	2.020663E+16	0	0	19.513094	0.961737	0	0
62.98282	2.401341	0.514117	61.745895	4.822735	59.342193	4.822735	1.379743E+15	0.000353	2826.349086	1.989305E+16	0	0	19.572141	0.952203	0	0
64.037618	1.403291	0.559119	61.592717	4.909153	59.139275	4.909153	1.317698E+15	0.000358	2794.236724	1.960207E+16	0	0	19.513457	0.942613	0	0
54.476588	6.029153	0.534309	61.442765	4.990078	58.942243	4.990078	1.256695E+15	0.000361	2766.462794	1.931597E+16	0	0	19.610243	0.93335	0	0
65.42384	0	0	61.293589	5.066131	58.748255	5.066131	1.199286E+15	0.000365	2738.507157	1.904673E+16	0	0	19.65391	0.924134	0	0
0	0	0	61.143963	5.137166	58.556123	5.137166	1.144375E+15	0.000368	2711.923782	1.87892E+16	0	0	19.442385	0.915387	0	0
0	0	0	60.995032	5.203429	58.366939	5.203429	1.091438E+15	0.000372	2688.71569	1.854094E+16	0	0	19.512909	0.906474	0	0
0	0	0	60.84749	5.266053	58.180876	5.266053	1.040813E+15	0.000375	2668.109838	1.830351E+16	0	0	19.538513	0.897719	0	0
0	0	0	60.701499	5.32477	57.998259	5.32477	9.926329E+14	0.000377	2647.573636	1.807755E+16	0	0	19.519722	0.888964	0	0
0	0	0	60.555631	5.38055	57.817112	5.38055	9.468341E+14	0.00038	2628.138141	1.786276E+16	0	0	19.582289	0.880504	0	0
0	0	0	60.410457	5.432033	57.638741	5.432033	9.028811E+14	0.000383	2609.113674	1.765663E+16	0	0	19.564336	0.872211	0	0
0	0	0	60.268713	5.481137	57.465052	5.481137	8.608771E+14	0.000385	2594.143234	1.745963E+16	0	0	19.502375	0.864402	0	0
0	0	0	60.120517	5.530384	57.284397	5.530384	8.214903E+14	0.000388	2576.29927	1.727492E+16	0	0	19.405408	0.856483	0	0
0	0	0	59.979835	5.573244	57.114782	5.573244	7.819745E+14	0.000391	2556.625081	1.708959E+16	0	0	19.627881	0.848396	0	0
0	0	0	59.841113	5.614738	56.947821	5.614738	7.45988E+14	0.000393	2543.231512	1.692082E+16	0	0	19.436675	0.840405	0	0
0	0	0	59.702759	5.653504	56.782554	5.653504	7.119133E+14	0.000396	2526.239762	1.676101E+16	0	0	19.590943	0.8327	0	0
0	0	0	59.565915	5.689115	56.620412	5.689115	6.792811E+14	0.000398	2511.765168	1.660797E+16	0	0	19.598447	0.824859	0	0
0	0	0	59.42948	5.723114	56.45945	5.723114	6.482932E+14	0.0004	2501.076409	1.646264E+16	0	0	19.447296	0.81721	0	0
0	0	0	59.291289	5.755349	56.297477	5.755349	6.186335E+14	0.000401	2490.163389	1.632354E+16	0	0	19.447026	0.809561	0	0
0	0	0	59.159469	5.785327	56.143299	5.785327	5.898104E+14	0.000403	2481.749218	1.618837E+16	0	0	19.445618	0.80211	0	0
0	0	0	59.024626	5.814411	55.98634	5.814411	5.634229E+14	0.000405	2471.307029	1.606461E+16	0	0	19.400944	0.794683	0	0
0	0	0	58.892602	5.841539	55.8333	5.841539	5.375132E+14	0.000406	2461.608662	1.59431E+16	0	0	19.446979	0.787241	0	0
0	0	0	58.75927	5.866856	55.679773	5.866856	5.131724E+14	0.000408	2452.502652	1.582894E+16	0	0	19.627834	0.779822	0	0
0	0	0	58.628389	5.890542	55.529621	5.890542	4.895891E+14	0.000409	2447.513785	1.571834E+16	0	0	19.44398	0.772697	0	0
0	0	0	58.499059	5.913651	55.381352	5.913651	4.673836E+14	0.000409	2443.124468	1.56142E+16	0	0	19.448396	0.765628	0	0
0	0	0	58.367892	5.934955	55.23205	5.934955	4.463303E+14	0.000411	2435.079316	1.551546E+16	0	0	19.447029	0.758575	0	0
0	0	0	58.240564	5.955142	55.08733	5.955142	4.258508E+14	0.000411	2433.057204	1.541942E+16	0	0	19.287697	0.751554	0	0
0	0	0	58.110172	5.974756	54.939645	5.974756	4.067838E+14	0.000412	2428.919655	1.533E+16	0	0	19.354711	0.744732	0	0
0	0	0	57.98558	5.992494	54.799018	5.992494	3.880605E+14	0.000412	2425.747476	1.524219E+16	0	0	19.450667	0.737838	0	0
0	0	0	57.857925	6.01	54.65525	6.01	3.709029E+14	0.000412	2424.068109	1.516172E+16	0	0	19.521942	0.73092	0	0
0	0	0	57.726104	6.026436	54.507625	6.026436	3.540413E+14	0.000413	2421.754589	1.508264E+16	0	0	19.315477	0.72409	0	0
0	0	0	57.600899	6.042281	54.367249	6.042281	3.373658E+14	0.000412	2425.430896	1.500443E+16	0	0	19.398529	0.71741	0	0
0	0	0	57.474428	6.057106	54.226051	6.057106	3.221954E+14	0.000413	2422.511825	1.493329E+16	0	0	19.294821	0.710866	0	0
0	0	0	57.350694	6.071378	54.087999	6.071378	3.075093E+14	0.000413	2423.384543	1.486441E+16	0	0	19.226363	0.704338	0	0
0	0	0	57.225815	6.084469	53.949347	6.084469	2.937394E+14	0.000413	2421.263529	1.479983E+16	0	0	19.331728	0.697889	0	0
0	0	0	57.105184	6.097199	53.815339	6.097199	2.804211E+14	0.000412	2425.066246	1.473737E+16	0	0	19.457587	0.691409	0	0
0	0	0	56.978305	6.109138	53.675143	6.109138	2.680884E+14	0.000413	2423.532812	1.467953E+16	0	0	19.292202	0.684936	0	0
0	0	0	56.858899	6.120852	53.542921	6.120852	2.556613E+14	0.000411	2430.106951	1.462125E+16	0	0	19.269372	0.678591	0	0
0	0	0	56.736552	6.131995	53.407885	6.131995	2.444577E+14	0.000412	2427.33867	1.456871E+16	0	0	19.287128	0.672182	0	0
0	0	0	56.612899	6.141865	53.272139	6.141865	2.334545E+14	0.000412	2428.059702	1.45171E+16	0	0	19.102691	0.6659	0	0
0	0	0	56.496801	6.151912	53.144241	6.151912	2.228056E+14	0.00041	2438.591718	1.446716E+16	0	0	19.234818	0.659865	0	0
0	0	0	56.37376	6.161331	53.009344	6.161331	2.132234E+14	0.000411	2435.936574	1.442222E+16	0	0	19.209925	0.653758	0	0
0	0	0	56.252965	6.170072	52.877167	6.170072	2.034917E+14	0.000409	2442.181064	1.437658E+16	0	0	19.189707	0.647707	0	0
0	0	0	56.135315	6.178997	52.748186	6.178997	1.943458E+14	0.000408	2449.976805	1.433369E+16	0	0	19.318253	0.641608	0	0
0	0	0	56.014602	6.187042	52.61644	6.187042	1.85812E+14	0.000408	2448.084098	1.429367E+16	0	0	19.194556	0.635311	0	0
0	0	0	55.898871	6.195102	52.489924	6.195102	1.774253E+14	0.000407	2455.80064	1.425433E+16	0	0	19.155994	0.629339	0	0
0	0	0	55.780527	6.201991	52.361279	6.201991	1.697227E+14	0.000407	2454.12167	1.421821E+16	0	0	19.198192	0.623399	0	0
0	0	0	55.659814	6.20927	52.229906	6.20927	1.621753E+14	0.000405	2467.15506	1.418281E+16	0	0	19.07942	0.617643	0	0
0	0	0	55.544981	6.215652	52.105218	6.215652	1.548065E+14	0.000404	2472.588704	1.414825E+16	0	0	19.045788	0.611894	0	0
0	0	0	55.426923	6.222434	51.976892	6.222434	1.480939E+14	0.000403	2482.002667	1.411677E+16	0	0	19.044311	0.60632	0	0
0	0	0	55.308783	6.228342	51.84895	6.228342	1.414831E+14	0.000403	2483.794669	1.408577E+16	0	0	19.047071	0.600865	0	0
0	0	0	55.189907	6.234444	51.720113	6.234444	1.35151E+14	0.000401	2496.040806	1.405607E+16	0	0	19.012422	0.595251	0	0
0	0	0	55.073727	6.239994	51.594414	6.239994	1.290542E+14	0.0004	2501.32542	1.402748E+16	0	0	19.114449	0.589788	0	0
0	0	0	54.958895	6.245495	51.470154	6.245495	1.233514E+14	0.000398	2509.778041	1.400073E+16	0	0	19.078918	0.584358	0	0
0	0	0	54.840999	6.250456	51.342952	6.250456	1.179535E+14	0.000398	2513.536446	1.397542E+16	0	0	18.997017	0.578887	0	0
0	0	0	54.730741	6.255335	51.223846	6.255335	1.126486E+14	0.000396	2527.001637	1.395054E+16	0	0	19.053479	0.573504	0	0
0	0	0	54.613703	6.2601	51.097639	6.2601	1.078962E+14	0.000395	2530.585079	1.392825E+16	0	0	19.001782	0.568287	0	0
0	0	0	54.501606	6.264438	50.976879	6.264438	1.030637E+14	0.000394	2539.105002	1.390559E+16	0	0	18.957323	0.563143	0	0
0	0	0	54.388162	6.268463	50.854864	6.268463	9.863191E+13	0.000392	2548.436975	1.38848E+16	0	0	18.925661	0.558149	0	0
0	0	0	54.272922	6.27286	50.730733	6.27286	9.433507E+13	0.00039	2562.880775	1.386465E+16	0	0	18.841611	0.553013	0	0
0	0	0	54.160866	6.276821	50.610203	6.276821	9.01563E+13	0.00039	2565.472605	1.384505E+16	0	0	18.844938	0.548107	0	0
0	0	0	54.043951	6.280503	50.484693	6.280503	8.626573E+13	0.000389	2571.789684	1.382681E+16	0	0	18.713373	0.543073	0	0
0	0	0	53.93214	6.28413	50.364596	6.28413	8.238057E+13	0.000387	2586.629359	1.380859E+16	0	0	18.682082	0.538159	0	0
0	0	0	53.818737	6.287842	50.242762	6.287842	7.882468E+13	0.000386	2593.687898	1.379191E+16	0	0	18.804501	0.533189	0	0
0	0	0	53.702884	6.290838	50.118741	6.290838	7.537107E+13	0.000385	2595.232655	1.377571E+16	0	0	18.868411	0.528307	0	0
0	0	0	53.591441	6.29407	49.999235	6.29407	7.199542E+13	0.000382	2617.784205	1.375988E+16	0	0	18.776673	0.523504	0	0
0	0	0	53.477997	6.296961	49.877807	6.296961	6.888781E+13	0.000381	2624.093638	1.374531E+16	0	0	18.880636	0.518773	0	0
0	0	0	53.362143	6.299653	49.753942	6.299653	6.585919E+13	0.000379	2640.216722	1.37311E+16	0	0	18.735103	0.514026	0	0
0	0	0	53.250496	6.302793	49.634255	6.302793	6.290081E+13	0.000376	2662.450373	1.371723E+16	0	0	18.594673	0.509518	0	0
0	0	0	53.135786	6.305081	49.511818	6.305081	6.017315E+13	0.000376	2658.792836	1.370444E+16	0	0	18.686376	0.504834	0	0
0	0	0	53.023608	6.307491	49.391979	6.307491	5.749149E+13	0.000372	2688.022879	1.369186E+16	0	0	18.570984	0.500032	0	0
0	0	0	52.907387	6.310012	49.267803	6.310012	5.498255E+13	0.00037	2706.258453	1.368009E+16	0	0	18.632905	0.495475	0	0
0	0	0	52.789818	6.312225	49.142377	6.312225	5.24966E+13	0.000368	2720.031113	1.366843E+16	0	0	18.578615	0.490991	0	0
0	0	0	52.680376	6.314538	49.02547	6.314538	5.009427E+13	0.000364	2745.254116	1.365717E+16	0	0	18.473392	0.486657	0	0
0	0	0	52.562808	6.316692	48.900068	6.316692	4.795533E+13	0.000363	2752.801582	1.364714E+16	0	0	18.533744	0.482204	0	0
0	0	0	52.451038	6.318723	48.780857	6.318723	4.575765E+13	0.000361	2772.850989	1.363683E+16	0	0	18.394903	0.477791	0	0
0	0	0	52.336206	6.320515	48.658547	6.320515	4.376046E+13	0.000359	2788.865759	1.362746E+16	0	0	18.428181	0.473243	0	0
0	0	0	52.219944	6.322536	48.534591	6.322536	4.179803E+13	0.000355	2817.64295	1.361826E+16	0	0	18.476194	0.468941	0	0
0	0	0	52.106622	6.324387	48.413834	6.324387	3.989961E+13	0.000353	2831.073997	1.360936E+16	0	0	18.253946	0.464631	0	0
0	0	0	51.99036	6.326179	48.290003	6.326179	3.813116E+13	0.000351	2846.733304	1.360106E+16	0	0	18.422149	0.460536	0	0
0	0	0	51.877121	6.328094	48.169288	6.328094	3.639725E+13	0.000349	2865.047923	1.359293E+16	0	0	18.31012	0.456394	0	0
0	0	0	51.760246	6.329609	48.044966	6.329609	3.478335E+13	0.000349	2866.816417	1.358536E+16	0	0	18.214354	0.452362	0	0
0	0	0	51.640922	6.331099	47.918067	6.331099	3.319182E+13	0.000345	2895.584561	1.35779E+16	0	0	18.202026	0.448434	0	0
0	0	0	51.525763	6.332459	47.79564	6.332459	3.164123E+13	0.000342	2925.308323	1.357063E+16	0	0	18.068312	0.44445	0	0
0	0	0	51.406724	6.334036	47.668986	6.334036	3.021278E+13	0.000338	2956.314617	1.356393E+16	0	0	18.207129	0.440514	0	0
0	0	0	51.290707	6.335141	47.545799	6.335141	2.880331E+13	0.000337	2970.565685	1.355732E+16	0	0	18.120702	0.436555	0	0
0	0	0	51.175099	6.33663	47.422813	6.33663	2.749232E+13	0.000332	3016.532444	1.355117E+16	0	0	18.098495	0.432634	0	0
0	0	0	51.055203	6.337999	47.295367	6.337999	2.624477E+13	0.000331	3024.724821	1.354532E+16	0	0	18.209658	0.429024	0	0
0	0	0	50.93547	6.339399	47.168073	6.339399	2.501021E+13	0.000329	3043.610141	1.353953E+16	0	0	18.000705	0.425279	0	0
0	0	0	50.812633	6.340397	47.037735	6.340397	2.383482E+13	0.000327	3053.836199	1.353401E+16	0	0	18.103666	0.42155	0	0
0	0	0	50.684774	6.341496	46.902031	6.341496	2.26859E+13	0.000322	3103.634594	1.352863E+16	0	0	18.119956	0.417853	0	0
0	0	0	50.561202	6.342921	46.770658	6.342921	2.154835E+13	0.000318	3146.034731	1.352329E+16	0	0	18.038034	0.414115	0	0
0	0	0	50.434282	6.343773	46.636089	6.343773	2.050281E+13	0.000318	3140.851788	1.351839E+16	0	0	17.991226	0.410426	0	0
0	0	0	50.310752	6.344774	46.505008	6.344774	1.948137E+13	0.000312	3201.456296	1.35136E+16	0	0	17.779402	0.406808	0	0
0	0	0	50.180932	6.345787	46.367275	6.345787	1.853578E+13	0.000309	3236.122686	1.350916E+16	0	0	17.769272	0.403166	0	0
0	0	0	50.052378	6.346703	46.230935	6.346703	1.759118E+13	0.000306	3272.606323	1.350473E+16	0	0	17.767312	0.399604	0	0
0	0	0	49.920068	6.347322	46.090804	6.347322	1.670296E+13	0.000302	3316.033075	1.350057E+16	0	0	17.893868	0.396185	0	0
0	0	0	49.786941	6.348391	45.949537	6.348391	1.583534E+13	0.000294	3404.675981	1.34965E+16	0	0	17.856605	0.392829	0	0
0	0	0	49.651731	6.349216	45.806214	6.349216	1.500761E+13	0.000292	3422.786518	1.349262E+16	0	0	17.623716	0.389315	0	0
0	0	0	49.512968	6.34996	45.659187	6.34996	1.421099E+13	0.000288	3476.240901	1.348888E+16	0	0	17.497852	0.3858	0	0
0	0	0	49.368937	6.35076	45.506558	6.35076	1.343718E+13	0.000282	3544.643974	1.348525E+16	0	0	17.572256	0.382277	0	0
0	0	0	49.221191	6.351515	45.35003	6.351515	1.267833E+13	0.000277	3606.381946	1.348169E+16	0	0	17.816119	0.379049	0	0
0	0	0	49.070749	6.352021	45.190805	6.352021	1.194423E+13	0.000272	3677.422663	1.347825E+16	0	0	17.660552	0.375741	0	0
0	0	0	48.917897	6.352796	45.028869	6.352796	1.124022E+13	0.000263	3800.673096	1.347495E+16	0	0	17.442999	0.372529	0	0
0	0	0	48.762024	6.353554	44.863748	6.353554	1.056727E+13	0.000259	3868.001952	1.347179E+16	0	0	17.32712	0.369324	0	0
0	0	0	48.59831	6.354085	44.690483	6.354085	9.922348E+12	0.000254	3937.430194	1.346877E+16	0	0	17.623656	0.366168	0	0
0	0	0	48.431166	6.354779	44.513492	6.354779	9.287185E+12	0.000246	4070.385705	1.346579E+16	0	0	17.410487	0.362796	0	0
0	0	0	48.258019	6.355386	44.330212	6.355386	8.680514E+12	0.00024	4164.355188	1.346294E+16	0	0	17.37162	0.359687	0	0
0	0	0	48.080992	6.35587	44.142907	6.35587	8.093694E+12	0.000233	4287.84521	1.346019E+16	0	0	17.316678	0.356697	0	0
0	0	0	47.899229	6.356352	43.950599	6.356352	7.534612E+12	0.000225	4452.812523	1.345757E+16	0	0	17.34621	0.3537	0	0
0	0	0	47.710114	6.35676	43.750569	6.35676	7.00063E+12	0.000216	4628.476087	1.345506E+16	0	0	17.147183	0.350654	0	0
0	0	0	47.511812	6.357351	43.540719	6.357351	6.485094E+12	0.000206	4846.37504	1.345265E+16	0	0	17.286351	0.347585	0	0
0	0	0	47.304403	6.357731	43.321378	6.357731	5.985153E+12	0.000199	5016.031594	1.34503E+16	0	0	17.136233	0.344452	0	0
0	0	0	47.088132	6.358354	43.092522	6.358354	5.503361E+12	0.000189	5290.595262	1.344804E+16	0	0	17.131672	0.341669	0	0
0	0	0	46.860632	6.358676	42.851989	6.358676	5.042169E+12	0.000182	5480.547028	1.344588E+16	0	0	17.113337	0.338735	0	0
0	0	0	46.626434	6.359325	42.604174	6.359325	4.598611E+12	0.000171	5842.016317	1.34438E+16	0	0	17.078848	0.335904	0	0
0	0	0	46.384069	6.359944	42.347747	6.359944	4.18266E+12	0.000165	6053.439599	1.344185E+16	0	0	16.9784	0.332954	0	0
0	0	0	46.136354	6.36001	42.086018	6.36001	3.791723E+12	0.000159	6288.933629	1.344001E+16	0	0	16.953556	0.330219	0	0
0	0	0	45.870344	6.360366	41.804778	6.360366	3.429844E+12	0.000145	6906.33544	1.343832E+16	0	0	16.920052	0.327269	0	0
0	0	0	45.592574	6.360973	41.510949	6.360973	3.079562E+12	0.000135	7416.988856	1.343667E+16	0	0	16.94019	0.32443	0	0
0	0	0	45.303655	6.36125	41.205553	6.36125	2.751879E+12	0.000129	7774.366756	1.343514E+16	0	0	16.860527	0.321639	0	0
0	0	0	44.997013	6.361611	40.881379	6.361611	2.447953E+12	0.000118	8470.051101	1.343371E+16	0	0	16.793645	0.319254	0	0
0	0	0	44.671586	6.361833	40.537448	6.361833	2.161989E+12	0.000109	9192.731903	1.343237E+16	0	0	16.737766	0.316582	0	0
0	0	0	44.327946	6.362203	40.174178	6.362203	1.894932E+12	9.79484E-5	10209.457444	1.343112E+16	0	0	16.615032	0.313823	0	0
0	0	0	43.973566	6.36263	39.799523	6.36263	1.648631E+12	8.929289E-5	11199.100533	1.342996E+16	0	0	16.666281	0.311239	0	0
0	0	0	43.599626	6.362979	39.404251	6.362979	1.428099E+12	8.185522E-5	12216.691367	1.342893E+16	0	0	16.666625	0.308519	0	0
0	0	0	43.210535	6.363588	38.9928	6.363588	1.227287E+12	7.386847E-5	13537.576083	1.342799E+16	0	0	16.586099	0.306158	0	0
0	0	0	42.807518	6.36364	38.567005	6.36364	1.048245E+12	6.912119E-5	14467.343596	1.342715E+16	0	0	16.570986	0.303708	0	0
0	0	0	42.389679	6.363873	38.125428	6.363873	8.902754E+11	5.918956E-5	16894.872448	1.342641E+16	0	0	16.351268	0.301188	0	0
0	0	0	41.964243	6.364236	37.675736	6.364236	7.515761E+11	5.188284E-5	19274.195526	1.342576E+16	0	0	16.476013	0.298564	0	0
0	0	0	41.518062	6.364288	37.204337	6.364288	6.3253E+11	4.643924E-5	21533.512552	1.34252E+16	0	0	16.357259	0.295884	0	0
0	0	0	41.042275	6.364909	36.701273	6.364909	5.27879E+11	3.91125E-5	25567.276702	1.342471E+16	0	0	16.423632	0.29369	0	0
0	0	0	40.552971	6.365099	36.184218	6.365099	4.35284E+11	3.622047E-5	27608.694801	1.342427E+16	0	0	16.331433	0.291272	0	0
0	0	0	40.043902	6.365238	35.646317	6.365238	3.569677E+11	3.086678E-5	32397.293401	1.342391E+16	0	0	16.190805	0.288879	0	0
0	0	0	39.508698	6.365587	35.080657	6.365587	2.904043E+11	2.585284E-5	38680.463314	1.342359E+16	0	0	16.203266	0.286501	0	0
0	0	0	38.942131	6.36571	34.48202	6.36571	2.33762E+11	2.247241E-5	44499.018147	1.342333E+16	0	0	16.112824	0.284052	0	0
0	0	0	38.347632	6.366064	33.853708	6.366064	1.857895E+11	1.837729E-5	54414.981441	1.34231E+16	0	0	16.08661	0.281715	0	0
0	0	0	37.737656	6.36615	33.209234	6.36615	1.459987E+11	1.575589E-5	63468.315618	1.342292E+16	0	0	16.093931	0.279345	0	0
0	0	0	37.115184	6.366452	32.551401	6.366452	1.140119E+11	1.258067E-5	79487.031513	1.342277E+16	0	0	16.023045	0.277079	0	0
0	0	0	36.480706	6.366479	31.88108	6.366479	8.858302E+10	1.061854E-5	94174.92081	1.342265E+16	0	0	15.866687	0.274964	0	0
0	0	0	35.833201	6.366596	31.196931	6.366596	6.849137E+10	8.273223E-6	120871.880401	1.342255E+16	0	0	15.911526	0.272578	0	0
