Vload_(V)	ILoad_(A)	RsLoad (ohm)	SunsVoc_Voltage_(V)	SunsVoc_Current_(A)	Model_Voltage_(V)	Model_Current_(A)	Carrier_Density_(cm-3)	Lifetime_(s)	Inverse_Lifetime_(s-1)	Efficiency_(%)	Intensity_(suns)	Dark_IV_Voltage_(V)	Dark_IV_Current_(A)
3.423785	7.349584	0	29.447841	-0.718507	29.626675	-0.718507	4.180405E+13	6.060778E-6	164995.31367	12.373373	1.108074	0	0
3.424596	7.348673	0.231483	29.398167	-0.427057	29.504435	-0.427057	4.015529E+13	6.039925E-6	165564.973288	12.510733	1.10752	0	0
3.469674	7.352713	-0.489646	29.314256	0.042003	29.303809	0.042003	3.751636E+13	6.005204E-6	166522.228419	12.362338	1.107797	0	0
4.38851	7.347158	0.459694	29.219091	0.536921	29.085602	0.536921	3.473255E+13	5.963491E-6	167687.015405	12.499281	1.106569	0	0
6.784527	7.334762	1.133333	29.123648	1.002343	28.874563	1.002343	3.214792E+13	5.924458E-6	168791.804745	12.356265	1.106015	0	0
9.404886	7.311374	1.281371	29.02876	1.430312	28.673489	1.430312	2.976887E+13	5.882676E-6	169990.668135	12.485845	1.104391	0	0
11.830377	7.301907	1.048858	28.934133	1.830311	28.479719	1.830311	2.757161E+13	5.843339E-6	171135.039248	12.346326	1.103956	0	0
14.242957	7.289789	0.813101	28.840503	2.197096	28.295277	2.197096	2.555706E+13	5.801959E-6	172355.586884	12.483696	1.101698	0	0
16.616052	7.278354	0.55554	28.74702	2.538743	28.117301	2.538743	2.369244E+13	5.760624E-6	173592.292594	12.358608	1.101659	0	0
18.998679	7.256853	0.324521	28.65388	2.857598	27.945395	2.857598	2.196989E+13	5.720979E-6	174795.242414	12.484336	1.09952	0	0
19.71184	7.24163	0.278776	28.561083	3.151628	27.780055	3.151628	2.037819E+13	5.678171E-6	176113.034629	12.370251	1.09952	0	0
20.435064	7.219915	0.241083	28.468449	3.42381	27.620356	3.42381	1.890425E+13	5.63268E-6	177535.384713	12.486085	1.097501	0	0
21.137993	7.183509	0.225923	28.375129	3.67756	27.464599	3.67756	1.752713E+13	5.583239E-6	179107.507648	12.394039	1.097738	0	0
21.856247	7.124195	0.228136	28.282773	3.911915	27.314659	3.911915	1.626299E+13	5.533719E-6	180710.306018	12.489583	1.09655	0	0
22.560205	7.038625	0.235354	28.189862	4.132544	27.167614	4.132544	1.50832E+13	5.484257E-6	182340.09963	12.408401	1.097342	0	0
23.276606	6.909885	0.24237	28.096444	4.336607	27.024211	4.336607	1.398323E+13	5.428657E-6	184207.629607	12.47256	1.095996	0	0
23.9675	6.728478	0.245552	27.996852	4.530108	26.877325	4.530108	1.289872E+13	5.351298E-6	186870.533063	12.402281	1.09659	0	0
24.658635	6.460297	0.245481	27.903058	4.70895	26.739872	4.70895	1.195437E+13	5.295406E-6	188842.950365	12.453092	1.094927	0	0
25.333807	6.069066	0.245704	27.809869	4.874587	26.60632	4.874587	1.108457E+13	5.238717E-6	190886.434844	12.407132	1.095204	0	0
25.987767	5.531685	0.245847	27.719669	5.026756	26.479102	5.026756	1.030297E+13	5.188314E-6	192740.84476	12.426728	1.093897	0	0
26.626922	4.848193	0.244503	27.629388	5.168252	26.354468	5.168252	9.575842E+12	5.134948E-6	194743.949145	12.413406	1.093659	0	0
27.235557	4.020437	0.243621	27.539286	5.300129	26.232416	5.300129	8.901314E+12	5.080385E-6	196835.464819	12.412362	1.092036	0	0
27.807741	3.101969	0.242984	27.449331	5.422541	26.112872	5.422541	8.275278E+12	5.023101E-6	199080.227239	12.411011	1.091838	0	0
28.322708	2.132768	0.256593	27.360585	5.535207	25.996956	5.535207	7.700805E+12	4.964659E-6	201423.712066	12.397784	1.090016	0	0
28.796634	1.155137	0.278113	27.272345	5.64006	25.883491	5.64006	7.169149E+12	4.905387E-6	203857.508093	12.426932	1.089699	0	0
23.82384	6.774881	0.244058	27.185804	5.737669	25.773518	5.737669	6.68339E+12	4.849929E-6	206188.575058	12.394922	1.087561	0	0
29.32243	0	0	27.098937	5.828865	25.66482	5.828865	6.22889E+12	4.79118E-6	208716.857276	12.447842	1.086729	0	0
0	0	0	27.012608	5.914282	25.558097	5.914282	5.807831E+12	4.733163E-6	211275.223488	12.380181	1.085106	0	0
0	0	0	26.9253	5.994505	25.451696	5.994505	5.410929E+12	4.670765E-6	214097.677175	12.456823	1.083561	0	0
0	0	0	26.838203	6.070133	25.346653	6.070133	5.042016E+12	4.60958E-6	216939.484308	12.370209	1.082096	0	0
0	0	0	26.750225	6.14084	25.241958	6.14084	4.694894E+12	4.543308E-6	220103.946479	12.457304	1.080789	0	0
0	0	0	26.662737	6.207312	25.138804	6.207312	4.373405E+12	4.478483E-6	223289.886753	12.361123	1.078849	0	0
0	0	0	26.574628	6.269636	25.036067	6.269636	4.071878E+12	4.410346E-6	226739.579026	12.465192	1.077582	0	0
0	0	0	26.484689	6.32885	24.932291	6.32885	3.785518E+12	4.338039E-6	230518.919001	12.354967	1.076077	0	0
0	0	0	26.394277	6.384818	24.828853	6.384818	3.517944E+12	4.265283E-6	234451.056318	12.472403	1.07481	0	0
0	0	0	26.303669	6.438317	24.725838	6.438317	3.268762E+12	4.195837E-6	238331.482699	12.346937	1.073741	0	0
0	0	0	26.212701	6.487236	24.623601	6.487236	3.036344E+12	4.118596E-6	242801.196543	12.477535	1.072434	0	0
0	0	0	26.122322	6.532855	24.522765	6.532855	2.821796E+12	4.04137E-6	247440.86144	12.347156	1.071404	0	0
0	0	0	26.031566	6.574534	24.422531	6.574534	2.621608E+12	3.956568E-6	252744.299159	12.484791	1.069979	0	0
0	0	0	25.941089	6.614171	24.323082	6.614171	2.436169E+12	3.874869E-6	258073.222436	12.346832	1.069305	0	0
0	0	0	25.850121	6.650637	24.22393	6.650637	2.262948E+12	3.787138E-6	264051.645553	12.48998	1.067603	0	0
0	0	0	25.756769	6.685601	24.122788	6.685601	2.097981E+12	3.695947E-6	270566.651421	12.334137	1.067048	0	0
0	0	0	25.66358	6.718477	24.022327	6.718477	1.945298E+12	3.605486E-6	277355.112089	12.476989	1.064989	0	0
0	0	0	25.569672	6.749482	23.921616	6.749482	1.802675E+12	3.513768E-6	284594.776934	12.327195	1.064118	0	0
0	0	0	25.474245	6.778683	23.819847	6.778683	1.668452E+12	3.418484E-6	292527.313833	12.470063	1.061781	0	0
0	0	0	25.380272	6.805972	23.719992	6.805972	1.546044E+12	3.3267E-6	300598.212759	12.324791	1.060752	0	0
0	0	0	25.285074	6.832112	23.619209	6.832112	1.431194E+12	3.235133E-6	309106.28342	12.465936	1.058098	0	0
0	0	0	25.188324	6.856965	23.517207	6.856965	1.323209E+12	3.14194E-6	318274.676881	12.325361	1.057148	0	0
0	0	0	25.092145	6.880699	23.41605	6.880699	1.223939E+12	3.053333E-6	327510.986837	12.45954	1.054534	0	0
0	0	0	24.995166	6.90321	23.314403	6.90321	1.131381E+12	2.964772E-6	337294.053214	12.334025	1.053426	0	0
0	0	0	24.89662	6.92425	23.211564	6.92425	1.044494E+12	2.872476E-6	348131.707101	12.457688	1.050772	0	0
0	0	0	24.797681	6.944649	23.108498	6.944649	9.639734E+11	2.784582E-6	359120.278087	12.346192	1.049466	0	0
0	0	0	24.697027	6.964036	23.003981	6.964036	8.884233E+11	2.695395E-6	371003.203326	12.456865	1.046892	0	0
0	0	0	24.59438	6.981921	22.897859	6.981921	8.174722E+11	2.60078E-6	384499.996196	12.353827	1.045822	0	0
0	0	0	24.491145	6.999343	22.79127	6.999343	7.518287E+11	2.510923E-6	398259.983608	12.453637	1.043209	0	0
0	0	0	24.385983	7.01587	22.682993	7.01587	6.903765E+11	2.419869E-6	413245.502654	12.354155	1.042496	0	0
0	0	0	24.278713	7.031765	22.572783	7.031765	6.328649E+11	2.329225E-6	429327.293666	12.437224	1.039684	0	0
0	0	0	24.174122	7.046202	22.465587	7.046202	5.814057E+11	2.241666E-6	446096.851796	12.365671	1.038774	0	0
0	0	0	24.066379	7.060259	22.355362	7.060259	5.327671E+11	2.153936E-6	464266.308595	12.428011	1.03612	0	0
0	0	0	23.962001	7.072972	22.248801	7.072972	4.895313E+11	2.070097E-6	483069.18992	12.375188	1.03517	0	0
0	0	0	23.857214	7.08545	22.141896	7.08545	4.496552E+11	1.9913E-6	502184.428954	12.417341	1.032438	0	0
0	0	0	23.752705	7.097289	22.035424	7.097289	4.131203E+11	1.915353E-6	522096.99094	12.38247	1.031883	0	0
0	0	0	23.647167	7.108084	21.928188	7.108084	3.792373E+11	1.836855E-6	544408.668475	12.404444	1.029309	0	0
0	0	0	23.543442	7.118611	21.822816	7.118611	3.486455E+11	1.765646E-6	566364.958752	12.392233	1.02828	0	0
0	0	0	23.441122	7.128587	21.718973	7.128587	3.208867E+11	1.698425E-6	588780.66785	12.3992	1.025428	0	0
0	0	0	23.339079	7.137827	21.615585	7.137827	2.954045E+11	1.631773E-6	612830.161111	12.402701	1.024636	0	0
0	0	0	23.237756	7.146856	21.512963	7.146856	2.721044E+11	1.570008E-6	636939.528445	12.386487	1.021943	0	0
0	0	0	23.136612	7.155043	21.410724	7.155043	2.506786E+11	1.507255E-6	663457.528607	12.410506	1.020795	0	0
0	0	0	23.036431	7.163367	21.309409	7.163367	2.311205E+11	1.451777E-6	688810.828845	12.371727	1.018142	0	0
0	0	0	22.935745	7.171093	21.207739	7.171093	2.130008E+11	1.39587E-6	716399.21125	12.418703	1.016637	0	0
0	0	0	22.835107	7.178422	21.106215	7.178422	1.963095E+11	1.341573E-6	745393.826293	12.355205	1.014063	0	0
0	0	0	22.734633	7.185823	21.004837	7.185823	1.809501E+11	1.292499E-6	773695.063171	12.427084	1.012439	0	0
0	0	0	22.633309	7.192327	20.902835	7.192327	1.666776E+11	1.239793E-6	806586.460083	12.344462	1.010103	0	0
0	0	0	22.53321	7.199106	20.801983	7.199106	1.536834E+11	1.194632E-6	837077.511772	12.435387	1.008202	0	0
0	0	0	22.433063	7.205326	20.701218	7.205326	1.416966E+11	1.148949E-6	870360.798571	12.339247	1.005866	0	0
0	0	0	22.33334	7.211198	20.600959	7.211198	1.306898E+11	1.104667E-6	905250.140001	12.443006	1.004123	0	0
0	0	0	22.234139	7.217175	20.501195	7.217175	1.20589E+11	1.065301E-6	938701.403609	12.33591	1.002104	0	0
0	0	0	22.13538	7.222465	20.402034	7.222465	1.113087E+11	1.024235E-6	976338.071676	12.451662	1.000163	0	0
0	0	0	22.035412	7.227455	20.301748	7.227455	1.02642E+11	9.830796E-7	1017211.665049	12.32913	0.998263	0	0
0	0	0	21.93582	7.232551	20.20181	7.232551	9.467889E+10	9.462904E-7	1056758.091906	12.462208	0.996203	0	0
0	0	0	21.835868	7.237363	20.101586	7.237363	8.730813E+10	9.100406E-7	1098852.048898	12.319256	0.994778	0	0
0	0	0	21.734643	7.241552	20.000249	7.241552	8.042805E+10	8.708384E-7	1148318.687558	12.459209	0.992639	0	0
0	0	0	21.634103	7.246073	19.899513	7.246073	7.413136E+10	8.377175E-7	1193719.835702	12.315309	0.991134	0	0
0	0	0	21.531391	7.250238	19.796711	7.250238	6.820737E+10	8.03089E-7	1245192.036957	12.45963	0.988798	0	0
0	0	0	21.429626	7.254314	19.694869	7.254314	6.280501E+10	7.711182E-7	1296818.039981	12.315886	0.987254	0	0
0	0	0	21.326701	7.257994	19.591974	7.257994	5.777619E+10	7.378745E-7	1355244.030687	12.458951	0.984838	0	0
0	0	0	21.224414	7.261601	19.489729	7.261601	5.317749E+10	7.069843E-7	1414458.483988	12.313808	0.983531	0	0
0	0	0	21.120852	7.265111	19.386245	7.265111	4.889428E+10	6.770481E-7	1476999.923502	12.448965	0.981116	0	0
0	0	0	21.016507	7.268321	19.282056	7.268321	4.492749E+10	6.466974E-7	1546318.263971	12.312573	0.979888	0	0
0	0	0	20.910871	7.271879	19.176507	7.271879	4.123935E+10	6.207906E-7	1610849.226724	12.451631	0.976918	0	0
0	0	0	20.803274	7.27492	19.069138	7.27492	3.779386E+10	5.920933E-7	1688922.949168	12.322514	0.97569	0	0
0	0	0	20.695106	7.277411	18.961335	7.277411	3.462018E+10	5.610918E-7	1782239.399349	12.447875	0.97276	0	0
0	0	0	20.582136	7.28067	18.84859	7.28067	3.158975E+10	5.361889E-7	1865014.393287	12.324324	0.97181	0	0
0	0	0	20.46977	7.283185	18.736621	7.283185	2.883871E+10	5.080352E-7	1968367.491908	12.436744	0.969236	0	0
0	0	0	20.355754	7.28595	18.622959	7.28595	2.629206E+10	4.833025E-7	2069097.710784	12.332308	0.967691	0	0
0	0	0	20.241935	7.288247	18.509603	7.288247	2.39741E+10	4.571944E-7	2187253.279271	12.429174	0.965117	0	0
0	0	0	20.127641	7.290964	18.395678	7.290964	2.18521E+10	4.360421E-7	2293356.371489	12.341245	0.963652	0	0
0	0	0	20.011241	7.292978	18.279833	7.292978	1.988392E+10	4.108824E-7	2433786.13076	12.421225	0.960959	0	0
0	0	0	19.892651	7.295403	18.161721	7.295403	1.806093E+10	3.899223E-7	2564613.493446	12.347456	0.95989	0	0
0	0	0	19.773098	7.297514	18.042729	7.297514	1.639226E+10	3.682413E-7	2715610.566315	12.406495	0.957197	0	0
0	0	0	19.652173	7.29935	17.922443	7.29935	1.486121E+10	3.460466E-7	2889784.146862	12.351572	0.956128	0	0
0	0	0	19.529107	7.301412	17.799983	7.301412	1.344981E+10	3.265872E-7	3061969.601508	12.398074	0.953356	0	0
0	0	0	19.405095	7.303231	17.676643	7.303231	1.21631E+10	3.069359E-7	3258008.719517	12.363421	0.952326	0	0
0	0	0	19.278518	7.304913	17.550793	7.304913	1.097664E+10	2.87425E-7	3479168.802291	12.392423	0.949594	0	0
0	0	0	19.150111	7.306934	17.423051	7.306934	9.891234E+9	2.712794E-7	3686235.789896	12.374495	0.948564	0	0
0	0	0	19.018601	7.308827	17.292264	7.308827	8.89075E+9	2.551599E-7	3919111.56331	12.376165	0.946188	0	0
0	0	0	18.885327	7.310193	17.159853	7.310193	7.98004E+9	2.369685E-7	4219970.673395	12.38021	0.944842	0	0
0	0	0	18.750403	7.31194	17.025718	7.31194	7.153042E+9	2.222656E-7	4499122.4375	12.362661	0.942387	0	0
0	0	0	18.614678	7.313177	16.89091	7.313177	6.407589E+9	2.05868E-7	4857480.907814	12.388643	0.94104	0	0
0	0	0	18.476111	7.314616	16.753238	7.314616	5.726609E+9	1.91562E-7	5220242.923806	12.35012	0.938704	0	0
0	0	0	18.33632	7.315732	16.614429	7.315732	5.112921E+9	1.766712E-7	5660232.924547	12.396712	0.937239	0	0
0	0	0	18.193147	7.317414	16.472135	7.317414	4.552499E+9	1.655301E-7	6041199.002638	12.340382	0.935021	0	0
0	0	0	18.048536	7.318538	16.328549	7.318538	4.048782E+9	1.525443E-7	6555474.877365	12.402587	0.933675	0	0
0	0	0	17.900724	7.319613	16.181802	7.319613	3.591464E+9	1.401694E-7	7134223.829464	12.329103	0.931536	0	0
0	0	0	17.751474	7.320899	16.03358	7.320899	3.18209E+9	1.297581E-7	7706646.818832	12.408278	0.929873	0	0
0	0	0	17.600346	7.322087	15.883521	7.322087	2.815087E+9	1.197546E-7	8350409.03416	12.32398	0.927774	0	0
0	0	0	17.448794	7.323268	15.733043	7.323268	2.489554E+9	1.10657E-7	9036934.493635	12.4138	0.926507	0	0
0	0	0	17.294317	7.324206	15.579724	7.324206	2.196452E+9	1.012372E-7	9877795.877616	12.319465	0.924329	0	0
0	0	0	17.136965	7.325111	15.423564	7.325111	1.933346E+9	9.240764E-8	1.082162E+7	12.422116	0.922547	0	0
0	0	0	16.977621	7.326373	15.265346	7.326373	1.699008E+9	8.56198E-8	1.167954E+7	12.304637	0.921082	0	0
0	0	0	16.812658	7.327157	15.10167	7.327157	1.486287E+9	7.751923E-8	1.290003E+7	12.419623	0.91922	0	0
0	0	0	16.646698	7.328079	14.936976	7.328079	1.299149E+9	7.066294E-8	1.415169E+7	12.30046	0.917438	0	0
0	0	0	16.480852	7.328992	14.772397	7.328992	1.135678E+9	6.451222E-8	1.550094E+7	12.431879	0.915498	0	0
0	0	0	16.315072	7.329712	14.607929	7.329712	9.9283E+8	5.843992E-8	1.711159E+7	12.299005	0.913676	0	0
0	0	0	16.14627	7.330609	14.440424	7.330609	8.658253E+8	5.337461E-8	1.87355E+7	12.426975	0.912013	0	0
0	0	0	15.97639	7.331232	14.271915	7.331232	7.544074E+8	4.808378E-8	2.079703E+7	12.288429	0.910508	0	0
0	0	0	15.807228	7.332218	14.104035	7.332218	6.577105E+8	4.430164E-8	2.257253E+7	12.426345	0.90837	0	0
0	0	0	15.6356	7.33259	13.933853	7.33259	5.72262E+8	3.938967E-8	2.538736E+7	12.284521	0.907103	0	0
0	0	0	15.463188	7.333423	13.762787	7.333423	4.975985E+8	3.601531E-8	2.776597E+7	12.432194	0.904608	0	0
0	0	0	15.289077	7.334304	13.590026	7.334304	4.320807E+8	3.307689E-8	3.023259E+7	12.292097	0.903222	0	0
0	0	0	15.112304	7.334692	13.414742	7.334692	3.743804E+8	2.940667E-8	3.400589E+7	12.424827	0.901242	0	0
0	0	0	14.935171	7.33546	13.239013	7.33546	3.242909E+8	2.685745E-8	3.723361E+7	12.284138	0.899975	0	0
0	0	0	14.756813	7.335703	13.062192	7.335703	2.806241E+8	2.364712E-8	4.228844E+7	12.420089	0.897599	0	0
0	0	0	14.577704	7.33673	12.884446	7.33673	2.426893E+8	2.2084E-8	4.528165E+7	12.277065	0.896728	0	0
0	0	0	14.397451	7.336964	12.705749	7.336964	2.09688E+8	1.943549E-8	5.145227E+7	12.420207	0.893916	0	0
0	0	0	14.213817	7.337675	12.523592	7.337675	1.806782E+8	1.774714E-8	5.63471E+7	12.283446	0.892926	0	0
0	0	0	14.029595	7.338039	12.340932	7.338039	1.556076E+8	1.576626E-8	6.342658E+7	12.416162	0.890312	0	0
0	0	0	13.844017	7.338492	12.156908	7.338492	1.338686E+8	1.411728E-8	7.083518E+7	12.284892	0.889164	0	0
0	0	0	13.658243	7.339244	11.972621	7.339244	1.151482E+8	1.302608E-8	7.676905E+7	12.411719	0.886431	0	0
0	0	0	13.46984	7.339745	11.785786	7.339745	9.883478E+7	1.175024E-8	8.510461E+7	12.288363	0.8856	0	0
0	0	0	13.27928	7.339915	11.59689	7.339915	8.468433E+7	1.024472E-8	9.761129E+7	12.400543	0.883184	0	0
0	0	0	13.084212	7.340554	11.403419	7.340554	7.229506E+7	9.364492E-9	1.067864E+8	12.291029	0.881957	0	0
0	0	0	12.886791	7.340893	11.207685	7.340893	6.160074E+7	8.290996E-9	1.206128E+8	12.401488	0.879343	0	0
0	0	0	12.690416	7.34133	11.012966	7.34133	5.253289E+7	7.444497E-9	1.343274E+8	12.290694	0.878591	0	0
0	0	0	12.494221	7.341378	10.818513	7.341378	4.480639E+7	6.387105E-9	1.565655E+8	12.38733	0.875937	0	0
0	0	0	12.295053	7.342098	10.620961	7.342098	3.812428E+7	5.956919E-9	1.67872E+8	12.296067	0.874987	0	0
0	0	0	12.095934	7.342389	10.423556	7.342389	3.243999E+7	5.273783E-9	1.896172E+8	12.368907	0.872769	0	0
0	0	0	11.896553	7.342801	10.225864	7.342801	2.759737E+7	4.759244E-9	2.101174E+8	12.301708	0.871661	0	0
0	0	0	11.694722	7.343052	10.02578	7.343052	2.343105E+7	4.195784E-9	2.383345E+8	12.361206	0.869245	0	0
0	0	0	11.490719	7.343165	9.823575	7.343165	1.98587E+7	3.61879E-9	2.763355E+8	12.312364	0.868097	0	0
0	0	0	11.284298	7.343828	9.61885	7.343828	1.679804E+7	3.413602E-9	2.929457E+8	12.355608	0.865483	0	0
0	0	0	11.078024	7.343804	9.414426	7.343804	1.421078E+7	2.875718E-9	3.477392E+8	12.313697	0.864651	0	0
0	0	0	10.870656	7.344208	9.20882	7.344208	1.201136E+7	2.6134E-9	3.826433E+8	12.340063	0.862275	0	0
0	0	0	10.662226	7.344604	9.002164	7.344604	1.01436E+7	2.382583E-9	4.197126E+8	12.319601	0.861325	0	0
0	0	0	10.451755	7.344644	8.793566	7.344644	8552112	2.025204E-9	4.937774E+8	12.331322	0.858672	0	0
0	0	0	10.239943	7.345	8.583568	7.345	7202492	1.837966E-9	5.440797E+8	12.329023	0.857682	0	0
0	0	0	10.029079	7.345113	8.374565	7.345113	6070520	1.588323E-9	6.295947E+8	12.313714	0.855464	0	0
0	0	0	9.816811	7.34555	8.164096	7.34555	5110628	1.481882E-9	6.748176E+8	12.33291	0.854434	0	0
0	0	0	9.603644	7.345558	7.952834	7.345558	4299384	1.249157E-9	8.005402E+8	12.304233	0.85194	0	0
0	0	0	9.387651	7.345841	7.738709	7.345841	3608636	1.127725E-9	8.867406E+8	12.336132	0.851108	0	0
0	0	0	9.166317	7.345954	7.519329	7.345954	3015776	9.718398E-10	1.028976E+9	12.293169	0.848653	0	0
0	0	0	8.949213	7.346011	7.304155	7.346011	2528976	8.278749E-10	1.207912E+9	12.347656	0.847386	0	0
0	0	0	8.735311	7.346358	7.092088	7.346358	2126268	7.710624E-10	1.296912E+9	12.279663	0.845445	0	0
0	0	0	8.519432	7.346536	6.878101	7.346536	1784820	6.850129E-10	1.459827E+9	12.353524	0.84402	0	0
0	0	0	8.305922	7.346924	6.666414	7.346924	1501088	6.601754E-10	1.514749E+9	12.273713	0.841683	0	0
0	0	0	8.093033	7.346787	6.455459	7.346787	1263096	5.282117E-10	1.89318E+9	12.349589	0.840812	0	0
0	0	0	7.881369	7.347159	6.245606	7.347159	1063892	5.131306E-10	1.948822E+9	12.255465	0.838832	0	0
0	0	0	7.669215	7.347369	6.035303	7.347369	895748	4.730311E-10	2.114026E+9	12.362429	0.837406	0	0
0	0	0	7.458923	7.347337	5.826899	7.347337	755320	3.931336E-10	2.543665E+9	12.252949	0.835347	0	0
0	0	0	7.250558	7.347547	5.620352	7.347547	637900	3.662767E-10	2.730177E+9	12.368485	0.833763	0	0
0	0	0	7.04448	7.34762	5.416101	7.34762	539736	3.213909E-10	3.111476E+9	12.236308	0.832338	0	0
0	0	0	6.84064	7.347894	5.214024	7.347894	457508	3.1675E-10	3.157063E+9	12.365693	0.830754	0	0
0	0	0	6.637944	7.34804	5.013109	7.34804	388164	2.940696E-10	3.400556E+9	12.225522	0.829368	0	0
0	0	0	6.437665	7.347983	4.814634	7.347983	329980	2.41151E-10	4.14678E+9	12.361589	0.827467	0	0
0	0	0	6.241976	7.348137	4.620662	7.348137	281564	2.276121E-10	4.393439E+9	12.223869	0.826041	0	0
0	0	0	6.048884	7.348509	4.429216	7.348509	240756	2.619471E-10	3.817565E+9	12.369435	0.823863	0	0
0	0	0	5.858063	7.348242	4.240161	7.348242	206244	1.797829E-10	5.562265E+9	12.22055	0.822715	0	0
0	0	0	5.670688	7.348525	4.0544	7.348525	177172	1.957099E-10	5.109603E+9	12.361632	0.820735	0	0
0	0	0	5.484327	7.348404	3.869732	7.348404	152324	1.509725E-10	6.623725E+9	12.220883	0.819467	0	0
0	0	0	5.301967	7.348598	3.688962	7.348598	131384	1.558392E-10	6.416872E+9	12.359266	0.817487	0	0
0	0	0	5.125683	7.348719	3.514229	7.348719	113884	1.54022E-10	6.492577E+9	12.218195	0.816458	0	0
0	0	0	4.954905	7.348776	3.344966	7.348776	99156	1.434923E-10	6.969015E+9	12.353451	0.814082	0	0
0	0	0	4.785613	7.348622	3.177222	7.348622	86440	1.051147E-10	9.513415E+9	12.21558	0.813329	0	0
0	0	0	4.621792	7.34901	3.014783	7.34901	75688	1.542815E-10	6.481659E+9	12.346785	0.811191	0	0
0	0	0	4.463036	7.349131	2.857421	7.349131	66544	1.719882E-10	5.814351E+9	12.215375	0.810241	0	0
0	0	0	4.307106	7.349091	2.702894	7.349091	58640	1.391327E-10	7.187381E+9	12.336013	0.808063	0	0
