Vload_(V)	ILoad_(A)	RsLoad (ohm)	SunsVoc_Voltage_(V)	SunsVoc_Current_(A)	Model_Voltage_(V)	Model_Current_(A)	Carrier_Density_(cm-3)	Lifetime_(s)	Inverse_Lifetime_(s-1)	Efficiency_(%)	Intensity_(suns)	Dark_IV_Voltage_(V)	Dark_IV_Current_(A)
4.037358	8.287203	0	23.90944	-0.831388	24.05099	-0.831388	1.111564E+15	5.210784E-5	19188.917555	11.93763	1.095773	0	0
10.253041	8.120168	0.057343	23.86104	-0.551958	23.955074	-0.551958	1.059792E+15	5.125139E-5	19509.799956	11.895563	1.093853	0	0
11.74228	8.032729	0.102841	23.75707	-0.038017	23.763556	-0.038017	9.560105E+14	4.908662E-5	20370.633588	11.949838	1.09072	0	0
13.212498	7.913805	0.129978	23.636708	0.515172	23.548683	0.515172	8.476711E+14	4.66218E-5	21448.000586	11.914255	1.088603	0	0
14.636604	7.756572	0.147173	23.507338	1.052611	23.32718	1.052611	7.440717E+14	4.396397E-5	22744.979582	11.946783	1.08735	0	0
16.079767	7.526715	0.16719	23.373966	1.560133	23.10648	1.560133	6.498082E+14	4.1291E-5	24217.651794	11.945967	1.086769	0	0
16.559678	7.428689	0.172669	23.236967	2.028997	22.888474	2.028997	5.648178E+14	3.857933E-5	25920.088013	11.887533	1.085694	0	0
17.021973	7.317749	0.17653	23.10188	2.454831	22.679508	2.454831	4.914499E+14	3.601888E-5	27762.813803	11.934069	1.083201	0	0
17.505421	7.187768	0.17852	22.968965	2.837958	22.479832	2.837958	4.282253E+14	3.359171E-5	29768.943955	11.898186	1.080331	0	0
17.984312	7.031363	0.181676	22.83939	3.182999	22.28987	3.182999	3.741699E+14	3.133553E-5	31912.427656	11.904834	1.07584	0	0
18.463244	6.848928	0.179755	22.705953	3.509439	22.099031	3.509439	3.254182E+14	2.911477E-5	34346.649172	11.924281	1.071433	0	0
18.934077	6.628441	0.180872	22.568309	3.818353	21.906792	3.818353	2.816065E+14	2.693662E-5	37124.054051	11.877771	1.067575	0	0
19.383285	6.38019	0.177817	22.42788	4.107868	21.71492	4.107868	2.428461E+14	2.48382E-5	40260.465625	11.922533	1.064191	0	0
19.857012	6.068915	0.176048	22.284829	4.379961	21.523249	4.379961	2.087366E+14	2.283624E-5	43789.977492	11.891696	1.06113	0	0
20.300118	5.724628	0.173209	22.138406	4.636773	21.330658	4.636773	1.786961E+14	2.092508E-5	47789.487478	11.869242	1.057291	0	0
20.751362	5.304859	0.168518	21.991647	4.870887	21.141522	4.870887	1.52862E+14	1.91266E-5	52283.179218	11.897202	1.052463	0	0
21.183931	4.833925	0.164847	21.846277	5.08468	20.957191	5.08468	1.309103E+14	1.747341E-5	57229.771986	11.843484	1.047549	0	0
21.607451	4.291836	0.161611	21.699355	5.284193	20.773653	5.284193	1.118914E+14	1.592707E-5	62786.15113	11.89043	1.041936	0	0
22.013732	3.692288	0.158375	21.549199	5.470756	20.588983	5.470756	9.527955E+13	1.446086E-5	69152.14617	11.858391	1.037147	0	0
22.397109	3.047607	0.160017	21.395539	5.644745	20.402851	5.644745	8.08104E+13	1.30724E-5	76497.028359	11.843059	1.031989	0	0
22.77334	2.331185	0.16854	21.245693	5.80265	20.223298	5.80265	6.880521E+13	1.183775E-5	84475.505279	11.869251	1.027273	0	0
23.068256	1.707201	0.179024	21.096599	5.947159	20.046766	5.947159	5.862068E+13	1.070836E-5	93384.962406	11.816095	1.02253	0	0
23.376065	0.998662	0.191536	20.946067	6.082247	19.870347	6.082247	4.985916E+13	9.665874E-6	103456.754324	11.85059	1.016917	0	0
23.60534	0.431561	0.195595	20.794294	6.208198	19.694197	6.208198	4.234509E+13	8.706502E-6	114856.68581	11.821055	1.011402	0	0
18.257295	6.931341	0.180074	20.63811	6.326795	19.514796	6.326795	3.578899E+13	7.803674E-6	128144.774143	11.806586	1.005314	0	0
23.755037	0	0	20.477998	6.438651	19.332526	6.438651	3.011712E+13	6.964309E-6	143589.25742	11.836846	0.999602	0	0
0	0	0	20.314407	6.543852	19.147833	6.543852	2.524699E+13	6.190432E-6	161539.613566	11.781989	0.994272	0	0
0	0	0	20.147924	6.642175	18.961358	6.642175	2.109684E+13	5.482016E-6	182414.632588	11.813632	0.98862	0	0
0	0	0	19.977889	6.735014	18.772185	6.735014	1.756025E+13	4.835956E-6	206784.360664	11.782549	0.983217	0	0
0	0	0	19.805256	6.820666	18.581595	6.820666	1.457474E+13	4.248189E-6	235394.424508	11.766779	0.977433	0	0
0	0	0	19.62698	6.900886	18.386184	6.900886	1.202271E+13	3.707116E-6	269751.458483	11.797979	0.971443	0	0
0	0	0	19.44239	6.976342	18.185157	6.976342	9.849711E+12	3.211908E-6	311341.415394	11.737037	0.965863	0	0
0	0	0	19.253734	7.047551	17.980704	7.047551	8.03377E+12	2.77023E-6	360980.884317	11.778977	0.959676	0	0
0	0	0	19.060479	7.114986	17.772204	7.114986	6.519935E+12	2.37756E-6	420599.267884	11.739354	0.954373	0	0
0	0	0	18.862862	7.177787	17.560055	7.177787	5.266331E+12	2.029129E-6	492822.224565	11.735218	0.948436	0	0
0	0	0	18.660868	7.23707	17.344042	7.23707	4.233583E+12	1.723297E-6	580283.183693	11.758578	0.942909	0	0
0	0	0	18.45537	7.292353	17.125145	7.292353	3.390429E+12	1.456777E-6	686446.715733	11.701152	0.937414	0	0
0	0	0	18.246319	7.344458	16.903168	7.344458	2.704744E+12	1.226389E-6	815401.876662	11.74105	0.931399	0	0
0	0	0	18.033757	7.393564	16.678122	7.393564	2.149529E+12	1.0282E-6	972573.758515	11.697384	0.925996	0	0
0	0	0	17.818916	7.439669	16.451265	7.439669	1.704063E+12	8.594578E-7	1163524.204201	11.703283	0.919902	0	0
0	0	0	17.600824	7.482935	16.221582	7.482935	1.346164E+12	7.154732E-7	1397676.296418	11.710013	0.914513	0	0
0	0	0	17.383026	7.523152	15.992719	7.523152	1.063763E+12	5.951391E-7	1680279.379171	11.663637	0.908886	0	0
0	0	0	17.16629	7.560731	15.765386	7.560731	8.415656E+11	4.951827E-7	2019456.839296	11.701862	0.903326	0	0
0	0	0	16.950182	7.596166	15.539054	7.596166	6.662302E+11	4.121156E-7	2426503.566978	11.651112	0.89797	0	0
0	0	0	16.734124	7.629781	15.313077	7.629781	5.274509E+11	3.429527E-7	2915853.873372	11.664294	0.892152	0	0
0	0	0	16.520916	7.660855	15.090441	7.660855	4.188677E+11	2.858627E-7	3498182.683845	11.661155	0.886631	0	0
0	0	0	16.307945	7.690525	14.86828	7.690525	3.327223E+11	2.383624E-7	4195292.115005	11.620025	0.88107	0	0
0	0	0	16.096543	7.718709	14.647964	7.718709	2.647418E+11	1.990639E-7	5023512.748358	11.657477	0.875556	0	0
0	0	0	15.885197	7.745691	14.427906	7.745691	2.106636E+11	1.662943E-7	6013436.862223	11.599342	0.870464	0	0
0	0	0	15.67301	7.77144	14.207199	7.77144	1.674792E+11	1.388055E-7	7204326.060628	11.62912	0.864936	0	0
0	0	0	15.464196	7.795405	13.990237	7.795405	1.336336E+11	1.161516E-7	8609439.247272	11.607028	0.860029	0	0
0	0	0	15.25753	7.817943	13.775708	7.817943	1.068756E+11	9.735561E-8	1.027162E+7	11.581861	0.854877	0	0
0	0	0	15.052318	7.839354	13.562853	7.839354	8.560991E+10	8.171244E-8	1.223804E+7	11.610816	0.849812	0	0
0	0	0	14.848168	7.859483	13.351302	7.859483	6.865432E+10	6.861272E-8	1.457456E+7	11.549861	0.845036	0	0
0	0	0	14.646386	7.878856	13.142287	7.878856	5.519803E+10	5.778165E-8	1.730653E+7	11.592966	0.839766	0	0
0	0	0	14.445111	7.897148	12.933977	7.897148	4.440348E+10	4.866167E-8	2.055005E+7	11.550481	0.835228	0	0
0	0	0	14.24631	7.914647	12.728321	7.914647	3.58156E+10	4.109382E-8	2.433456E+7	11.547258	0.830162	0	0
0	0	0	14.047795	7.931084	12.523144	7.931084	2.889759E+10	3.468667E-8	2.882952E+7	11.558698	0.825479	0	0
0	0	0	13.846814	7.946865	12.315569	7.946865	2.325375E+10	2.920642E-8	3.423904E+7	11.513891	0.820565	0	0
0	0	0	13.649647	7.961835	12.112019	7.961835	1.878949E+10	2.468515E-8	4.051019E+7	11.550836	0.81569	0	0
0	0	0	13.454448	7.976112	11.910592	7.976112	1.521462E+10	2.090593E-8	4.783333E+7	11.499828	0.811225	0	0
0	0	0	13.261471	7.989491	11.711589	7.989491	1.234953E+10	1.773171E-8	5.639615E+7	11.513834	0.806238	0	0
0	0	0	13.068722	8.00242	11.512894	8.00242	1.002645E+10	1.504972E-8	6.64464E+7	11.506705	0.801832	0	0
0	0	0	12.877354	8.014496	11.31576	8.014496	8.152522E+9	1.277885E-8	7.825431E+7	11.471511	0.797201	0	0
0	0	0	12.687194	8.026308	11.119896	8.026308	6.637496E+9	1.087514E-8	9.195285E+7	11.505175	0.79261	0	0
0	0	0	12.4971	8.037674	10.924177	8.037674	5.404396E+9	9.258101E-9	1.080135E+8	11.447121	0.788204	0	0
0	0	0	12.308712	8.048056	10.730379	8.048056	4.408508E+9	7.87992E-9	1.269048E+8	11.476865	0.7836	0	0
0	0	0	12.119802	8.058105	10.536105	8.058105	3.594104E+9	6.706016E-9	1.491198E+8	11.448289	0.779333	0	0
0	0	0	11.930026	8.067762	10.341019	8.067762	2.927407E+9	5.702446E-9	1.753634E+8	11.43032	0.774742	0	0
0	0	0	11.74199	8.076882	10.147802	8.076882	2.38887E+9	4.855177E-9	2.059657E+8	11.456649	0.770118	0	0
0	0	0	11.554959	8.08581	9.955637	8.08581	1.951522E+9	4.142144E-9	2.414209E+8	11.393353	0.765982	0	0
0	0	0	11.368948	8.093987	9.764654	8.093987	1.596003E+9	3.530907E-9	2.832133E+8	11.437613	0.761213	0	0
0	0	0	11.182643	8.102086	9.573379	8.102086	1.304837E+9	3.013048E-9	3.318898E+8	11.38642	0.757183	0	0
0	0	0	10.997114	8.109917	9.382941	8.109917	1.067684E+9	2.574325E-9	3.884513E+8	11.397537	0.752546	0	0
0	0	0	10.812092	8.11726	9.19311	8.11726	8.74112E+8	2.198666E-9	4.548213E+8	11.389558	0.74841	0	0
0	0	0	10.626898	8.124093	9.0032	8.124093	7.155022E+8	1.875105E-9	5.333035E+8	11.351619	0.744076	0	0
0	0	0	10.443256	8.130835	8.814882	8.130835	5.866559E+8	1.603726E-9	6.23548E+8	11.387916	0.73973	0	0
0	0	0	10.25892	8.136961	8.625976	8.136961	4.806511E+8	1.367526E-9	7.312476E+8	11.327686	0.735726	0	0
0	0	0	10.072002	8.143316	8.434391	8.143316	3.927033E+8	1.166645E-9	8.571585E+8	11.358865	0.731234	0	0
0	0	0	9.888025	8.14916	8.245897	8.14916	3.218695E+8	9.966956E-10	1.003315E+9	11.329984	0.727388	0	0
0	0	0	9.706025	8.154681	8.059476	8.154681	2.643767E+8	8.527706E-10	1.172648E+9	11.314648	0.723134	0	0
0	0	0	9.52565	8.160143	7.874717	8.160143	2.175352E+8	7.318414E-10	1.366416E+9	11.332094	0.719229	0	0
0	0	0	9.346091	8.165231	7.690862	8.165231	1.791511E+8	6.278508E-10	1.592735E+9	11.277956	0.715271	0	0
0	0	0	9.167398	8.170201	7.507907	8.170201	1.47678E+8	5.395342E-10	1.853451E+9	11.315127	0.711149	0	0
0	0	0	8.990519	8.174889	7.326853	8.174889	1.21973E+8	4.642198E-10	2.154152E+9	11.265552	0.707475	0	0
0	0	0	8.812953	8.179148	7.145183	8.179148	1.006675E+8	3.982345E-10	2.511083E+9	11.273892	0.703471	0	0
0	0	0	8.637707	8.183525	6.965848	8.183525	8.329213E+7	3.434111E-10	2.911962E+9	11.269178	0.699678	0	0
0	0	0	8.463294	8.18783	6.787373	8.18783	6.897789E+7	2.967135E-10	3.370255E+9	11.233518	0.695787	0	0
0	0	0	8.286994	8.191515	6.6071	8.191515	5.700723E+7	2.546649E-10	3.926728E+9	11.27044	0.691842	0	0
0	0	0	8.111381	8.195296	6.427503	8.195296	4.714896E+7	2.192904E-10	4.560164E+9	11.205082	0.6883	0	0
0	0	0	7.939352	8.199059	6.251558	8.199059	3.914693E+7	1.898451E-10	5.267453E+9	11.24107	0.684342	0	0
0	0	0	7.768631	8.202475	6.077012	8.202475	3.254895E+7	1.642126E-10	6.089665E+9	11.199407	0.680899	0	0
0	0	0	7.599984	8.205641	5.904628	8.205641	2.712379E+7	1.421538E-10	7.034634E+9	11.195485	0.676975	0	0
0	0	0	7.431615	8.208953	5.732494	8.208953	2.260966E+7	1.235105E-10	8.096478E+9	11.206848	0.67334	0	0
0	0	0	7.265206	8.21221	5.562365	8.21221	1.888679E+7	1.076543E-10	9.288989E+9	11.153681	0.669798	0	0
0	0	0	7.101426	8.215029	5.395002	8.215029	1.582184E+7	9.370755E-11	1.06715E+10	11.193082	0.665966	0	0
0	0	0	6.937476	8.217895	5.227453	8.217895	1.325182E+7	8.173081E-11	1.223529E+10	11.130193	0.662648	0	0
0	0	0	6.776384	8.220487	5.06287	8.220487	1.113361E+7	7.133444E-11	1.401847E+10	11.159981	0.658545	0	0
0	0	0	6.61726	8.223233	4.900257	8.223233	9373912	6.263877E-11	1.596455E+10	11.130184	0.655333	0	0
0	0	0	6.458242	8.225616	4.737827	8.225616	7893244	5.478492E-11	1.82532E+10	11.113226	0.6515	0	0
0	0	0	6.299812	8.228094	4.575973	8.228094	6650684	4.809585E-11	2.079182E+10	11.130372	0.648044	0	0
0	0	0	6.145573	8.230408	4.418419	8.230408	5629170	4.236719E-11	2.360317E+10	11.077106	0.644502	0	0
0	0	0	5.993154	8.23233	4.262801	8.23233	4773948	3.71892E-11	2.688953E+10	11.112989	0.640755	0	0
0	0	0	5.843896	8.234553	4.110337	8.234553	4062515	3.298331E-11	3.031836E+10	11.065351	0.637477	0	0
0	0	0	5.696811	8.236671	3.960105	8.236671	3465233	2.931334E-11	3.411416E+10	11.073895	0.63381	0	0
0	0	0	5.550763	8.238525	3.810984	8.238525	2959081	2.598505E-11	3.848367E+10	11.066992	0.630492	0	0
0	0	0	5.407427	8.240616	3.664574	8.240616	2534280	2.325349E-11	4.30043E+10	11.026235	0.627022	0	0
0	0	0	5.266965	8.24227	3.521182	8.24227	2177219	2.071242E-11	4.828022E+10	11.058996	0.62354	0	0
0	0	0	5.127549	8.243828	3.378874	8.243828	1872581	1.845415E-11	5.418835E+10	10.99533	0.620314	0	0
0	0	0	4.990583	8.245627	3.23901	8.245627	1614840	1.660286E-11	6.023057E+10	11.027355	0.616719	0	0
0	0	0	4.855953	8.247153	3.101581	8.247153	1396095	1.490077E-11	6.711061E+10	10.991551	0.613494	0	0
0	0	0	4.72312	8.248661	2.965985	8.248661	1209329	1.341233E-11	7.455827E+10	10.982364	0.609892	0	0
0	0	0	4.591593	8.250032	2.831748	8.250032	1049028	1.206364E-11	8.289374E+10	10.991626	0.606588	0	0
0	0	0	4.458801	8.251809	2.696134	8.251809	908732	1.097479E-11	9.111796E+10	10.936672	0.603395	0	0
0	0	0	4.330729	8.253052	2.565441	8.253052	791226	9.903625E-12	1.009731E+11	10.98261	0.599754	0	0
0	0	0	4.205426	8.254168	2.437594	8.254168	690981	8.941068E-12	1.118435E+11	10.913515	0.596799	0	0
0	0	0	4.082671	8.255453	2.312305	8.255453	605101	8.146594E-12	1.227507E+11	10.94812	0.593105	0	0
0	0	0	3.962106	8.256724	2.189248	8.256724	531149	7.449141E-12	1.342437E+11	10.911708	0.590216	0	0
0	0	0	3.844218	8.257844	2.06895	8.257844	467589	6.808041E-12	1.468851E+11	10.894234	0.58676	0	0
0	0	0	3.727499	8.259047	1.949824	8.259047	412154	6.25722E-12	1.598154E+11	10.910056	0.583574	0	0
0	0	0	3.613622	8.260049	1.833635	8.260049	364410	5.736562E-12	1.743204E+11	10.855299	0.580349	0	0
0	0	0	3.502261	8.261274	1.719959	8.261274	323073	5.326184E-12	1.877517E+11	10.895503	0.576899	0	0
0	0	0	3.393285	8.262359	1.608742	8.262359	287165	4.940793E-12	2.023967E+11	10.83515	0.574043	0	0
0	0	0	3.285517	8.263206	1.498806	8.263206	255582	4.552654E-12	2.196521E+11	10.856172	0.570461	0	0
0	0	0	3.180003	8.264126	1.39115	8.264126	228028	4.223797E-12	2.367538E+11	10.83109	0.567638	0	0
0	0	0	3.076964	8.265028	1.286018	8.265028	203989	3.932204E-12	2.543103E+11	10.808836	0.564267	0	0
0	0	0	2.976759	8.266067	1.183742	8.266067	183044	3.701837E-12	2.701362E+11	10.826589	0.561259	0	0
0	0	0	2.877682	8.266654	1.082711	8.266654	164450	3.420902E-12	2.923205E+11	10.77373	0.558192	0	0
0	0	0	2.781136	8.26736	0.984233	8.26736	148150	3.191488E-12	3.133334E+11	10.806923	0.55494	0	0
0	0	0	2.685374	8.268239	0.886516	8.268239	133579	3.011002E-12	3.321153E+11	10.754237	0.55215	0	0
0	0	0	2.591001	8.268996	0.790238	8.268996	120622	2.831858E-12	3.53125E+11	10.766004	0.548859	0	0
0	0	0	2.499045	8.269861	0.696399	8.269861	109207	2.691823E-12	3.714954E+11	10.753308	0.54597	0	0
0	0	0	2.410438	8.270408	0.606039	8.270408	99230	2.525507E-12	3.959601E+11	10.715751	0.542876	0	0
0	0	0	2.323088	8.271246	0.516897	8.271246	90288	2.418624E-12	4.134582E+11	10.742154	0.539882	0	0
0	0	0	2.237756	8.271697	0.429893	8.271697	82331	2.269615E-12	4.406034E+11	10.6826	0.536887	0	0
0	0	0	2.155005	8.272312	0.345481	8.272312	75285	2.161084E-12	4.627307E+11	10.715363	0.533866	0	0
0	0	0	2.074369	8.272945	0.26322	8.272945	68999	2.068599E-12	4.834189E+11	10.663741	0.531076	0	0
0	0	0	1.995211	8.273601	0.182459	8.273601	63340	1.990517E-12	5.02382E+11	10.67383	0.527864	0	0
0	0	0	1.91803	8.274266	0.103709	8.274266	58269	1.925292E-12	5.194018E+11	10.660023	0.52508	0	0
0	0	0	1.842458	8.27484	0.026617	8.27484	53698	1.85663E-12	5.386103E+11	10.622136	0.522138	0	0
0	0	0	1.768772	8.275286	-0.048525	8.275286	49586	1.778681E-12	5.622142E+11	10.648494	0.519183	0	0
0	0	0	1.69708	8.275938	-0.121684	8.275938	45887	1.741173E-12	5.743254E+11	10.587482	0.516353	0	0
0	0	0	1.627657	8.276434	-0.192496	8.276434	42569	1.689749E-12	5.91804E+11	10.626345	0.513273	0	0
0	0	0	1.559705	8.276708	-0.261761	8.276708	39554	1.610957E-12	6.207492E+11	10.568891	0.510615	0	0
0	0	0	1.493836	8.277222	-0.328959	8.277222	36835	1.577589E-12	6.338787E+11	10.58066	0.507594	0	0
0	0	0	1.429061	8.27776	-0.395048	8.27776	34344	1.554629E-12	6.432404E+11	10.562703	0.505001	0	0
0	0	0	1.36574	8.278165	-0.459627	8.278165	32071	1.51686E-12	6.592566E+11	10.530675	0.50202	0	0
0	0	0	1.303872	8.278507	-0.522711	8.278507	29996	1.474456E-12	6.782163E+11	10.554415	0.49919	0	0
0	0	0	1.244496	8.278885	-0.583266	8.278885	28131	1.445634E-12	6.91738E+11	10.489331	0.496591	0	0
0	0	0	1.186336	8.279468	-0.642628	8.279468	26417	1.459886E-12	6.849848E+11	10.525433	0.493722	0	0
0	0	0	1.130104	8.279719	-0.699953	8.279719	24858	1.419716E-12	7.043662E+11	10.468607	0.491275	0	0
0	0	0	1.075579	8.279928	-0.75553	8.279928	23435	1.376996E-12	7.262186E+11	10.487307	0.488241	0	0
0	0	0	1.022337	8.280479	-0.809878	8.280479	22124	1.40653E-12	7.109696E+11	10.458794	0.485813	0	0
0	0	0	0.970401	8.280898	-0.862865	8.280898	20917	1.418189E-12	7.051245E+11	10.437407	0.48299	0	0
0	0	0	0.920327	8.281126	-0.913913	8.281126	19814	1.393756E-12	7.174857E+11	10.450037	0.480385	0	0
0	0	0	0.871454	8.281386	-0.963746	8.281386	18794	1.381014E-12	7.241054E+11	10.398628	0.477727	0	0
0	0	0	0.821976	8.281746	-1.014217	8.281746	17815	1.395398E-12	7.166416E+11	10.431483	0.475003	0	0
0	0	0	0.775136	8.281996	-1.061977	8.281996	16936	1.390378E-12	7.192289E+11	10.369002	0.472707	0	0
0	0	0	0.730633	8.282283	-1.107366	8.282283	16140	1.40232E-12	7.13104E+11	10.392943	0.469798	0	0
0	0	0	0.687999	8.282557	-1.150847	8.282557	15413	1.417926E-12	7.052556E+11	10.363212	0.46749	0	0
0	0	0	0.64548	8.282866	-1.194219	8.282866	14721	1.450994E-12	6.891828E+11	10.34256	0.464838	0	0
0	0	0	0.605705	8.282948	-1.234747	8.282948	14101	1.416667E-12	7.05882E+11	10.350091	0.462424	0	0
0	0	0	0.56794	8.283153	-1.273255	8.283153	13537	1.428843E-12	6.998668E+11	10.296149	0.45993	0	0
0	0	0	0.531024	8.283577	-1.310947	8.283577	13007	1.533295E-12	6.521902E+11	10.326086	0.457398	0	0
0	0	0	0.495398	8.283745	-1.347268	8.283745	12516	1.547335E-12	6.462724E+11	10.271569	0.45497	0	0
0	0	0	0.461381	8.284014	-1.381973	8.284014	12064	1.617156E-12	6.183695E+11	10.290977	0.452391	0	0
0	0	0	0.428164	8.284224	-1.415849	8.284224	11638	1.669773E-12	5.988837E+11	10.254702	0.450109	0	0
0	0	0	0.396794	8.284265	-1.447808	8.284265	11250	1.636626E-12	6.110133E+11	10.242913	0.447503	0	0
0	0	0	0.366958	8.284588	-1.478267	8.284588	10893	1.780692E-12	5.615794E+11	10.249037	0.44503	0	0
0	0	0	0.338373	8.284565	-1.507375	8.284565	10562	1.711674E-12	5.842234E+11	10.19812	0.442708	0	0
0	0	0	0.311135	8.284857	-1.535181	8.284857	10255	1.868436E-12	5.352071E+11	10.233929	0.440122	0	0
0	0	0	0.285293	8.28503	-1.561538	8.28503	9973	1.961799E-12	5.097362E+11	10.165208	0.438005	0	0
0	0	0	0.260301	8.284962	-1.586976	8.284962	9707	1.851263E-12	5.401718E+11	10.200114	0.435347	0	0
0	0	0	0.23691	8.285381	-1.610893	8.285381	9464	2.220009E-12	4.504486E+11	10.148556	0.433249	0	0
0	0	0	0.214679	8.285445	-1.633549	8.285445	9239	2.245826E-12	4.452704E+11	10.154697	0.430677	0	0
0	0	0	0.193697	8.285568	-1.654946	8.285568	9032	2.360612E-12	4.23619E+11	10.142257	0.42854	0	0
0	0	0	0.173948	8.285709	-1.675091	8.285709	8841	2.529054E-12	3.954048E+11	10.097178	0.426264	0	0
0	0	0	0.154943	8.285713	-1.694448	8.285713	8662	2.485426E-12	4.023456E+11	10.13237	0.423771	0	0
0	0	0	0.136754	8.285941	-1.713023	8.285941	8493	2.87675E-12	3.476145E+11	10.05838	0.421713	0	0
0	0	0	0.120134	8.286032	-1.729971	8.286032	8342	3.04546E-12	3.283576E+11	10.100493	0.419173	0	0
0	0	0	0.104306	8.285982	-1.746081	8.285982	8200	2.870765E-12	3.483392E+11	10.030692	0.41734	0	0
0	0	0	0.089237	8.286205	-1.761477	8.286205	8068	3.456415E-12	2.893171E+11	10.056955	0.414655	0	0
0	0	0	0.074781	8.286228	-1.776206	8.286228	7943	3.482355E-12	2.87162E+11	10.018995	0.412749	0	0
0	0	0	0.061885	8.286347	-1.789366	8.286347	7833	3.908961E-12	2.558224E+11	10.001964	0.410348	0	0
0	0	0	0.049307	8.286333	-1.802173	8.286333	7727	3.795509E-12	2.634692E+11	10.006904	0.40825	0	0
0	0	0	0.037301	8.286556	-1.814451	8.286556	7627	5.038793E-12	1.984602E+11	9.954726	0.406087	0	0
0	0	0	0.026022	8.286624	-1.825954	8.286624	7535	5.565783E-12	1.796693E+11	9.990389	0.403686	0	0
0	0	0	0.015225	8.286561	-1.836936	8.286561	7447	4.954759E-12	2.018262E+11	9.917763	0.401845	0	0
0	0	0	0.005604	8.286652	-1.846755	8.286652	7370	5.713761E-12	1.750161E+11	9.954142	0.399319	0	0
0	0	0	-0.003568	8.286702	-1.856108	8.286702	7297	6.222677E-12	1.607025E+11	9.899028	0.397538	0	0
0	0	0	-0.01243	8.286807	-1.865156	8.286807	7228	7.792606E-12	1.283268E+11	9.902164	0.395104	0	0
