Vload_(V)	ILoad_(A)	RsLoad (ohm)	SunsVoc_Voltage_(V)	SunsVoc_Current_(A)	Model_Voltage_(V)	Model_Current_(A)	Carrier_Density_(cm-3)	Lifetime_(s)	Inverse_Lifetime_(s-1)	Efficiency_(%)	Intensity_(suns)	Dark_IV_Voltage_(V)	Dark_IV_Current_(A)
3.329928	7.270501	0	29.402886	-0.641897	29.501174	-0.641897	4.030906E+13	5.959028E-6	167812.613999	12.058981	1.096584	0	0
3.390386	7.272573	-0.488296	29.359975	-0.39408	29.42104	-0.39408	3.893191E+13	5.941528E-6	168306.864857	12.037932	1.096359	0	0
3.413361	7.270832	-0.203471	29.278759	0.04984	29.270863	0.04984	3.645282E+13	5.905205E-6	169342.138002	12.043216	1.094102	0	0
4.468331	7.26193	1.315437	29.181323	0.548596	29.092124	0.548596	3.368584E+13	5.861865E-6	170594.172171	12.020289	1.09137	0	0
6.869409	7.248416	1.48099	29.083086	1.021633	28.912683	1.021633	3.110855E+13	5.823168E-6	171727.836442	12.074772	1.089205	0	0
9.429097	7.222462	1.478267	28.98565	1.460926	28.735888	1.460926	2.874695E+13	5.787997E-6	172771.353042	12.034535	1.08832	0	0
11.859093	7.166731	1.43952	28.889292	1.856134	28.564317	1.856134	2.658774E+13	5.744001E-6	174094.663956	12.067998	1.086974	0	0
14.277641	7.119222	1.235972	28.797001	2.210062	28.401339	2.210062	2.46718E+13	5.702869E-6	175350.348945	12.007131	1.085311	0	0
16.646802	7.023587	1.062952	28.707357	2.536281	28.243571	2.536281	2.294299E+13	5.668687E-6	176407.695335	12.057157	1.082473	0	0
19.000821	6.876102	0.867852	28.615001	2.844575	28.083607	2.844575	2.128843E+13	5.626267E-6	177737.73698	12.019681	1.079397	0	0
19.715256	6.850328	0.782831	28.523984	3.12839	27.927396	3.12839	1.977459E+13	5.584272E-6	179074.357161	12.062188	1.074988	0	0
20.424562	6.827467	0.694177	28.4322	3.394907	27.771463	3.394907	1.835693E+13	5.540418E-6	180491.784911	12.030813	1.071332	0	0
21.134296	6.809552	0.602012	28.338815	3.644828	27.614883	3.644828	1.701876E+13	5.490604E-6	182129.32829	12.058295	1.067464	0	0
21.8503	6.781663	0.512857	28.246361	3.877672	27.460853	3.877672	1.579001E+13	5.443791E-6	183695.524921	12.047774	1.064679	0	0
22.558563	6.745974	0.428015	28.155344	4.092684	27.310354	4.092684	1.466703E+13	5.398763E-6	185227.61746	12.045543	1.061023	0	0
23.261961	6.681807	0.355122	28.062041	4.293437	27.158474	4.293437	1.359866E+13	5.343045E-6	187159.209206	12.048104	1.056799	0	0
23.96488	6.556745	0.3012	27.964458	4.483154	27.002258	4.483154	1.256442E+13	5.272691E-6	189656.472002	12.031618	1.051558	0	0
24.661259	6.320236	0.271546	27.872886	4.655464	26.855476	4.655464	1.166553E+13	5.218039E-6	191642.886952	12.064292	1.04637	0	0
25.33514	5.937627	0.26083	27.784009	4.813774	26.713709	4.813774	1.085461E+13	5.168188E-6	193491.414853	12.032259	1.041315	0	0
25.985938	5.40931	0.256563	27.69737	4.959711	26.576249	4.959711	1.01184E+13	5.12191E-6	195239.679367	12.076017	1.036022	0	0
26.62654	4.723331	0.252838	27.610356	5.095152	26.439662	5.095152	9.429229E+12	5.070235E-6	197229.517133	12.030989	1.031336	0	0
27.229118	3.916428	0.250468	27.524386	5.22203	26.305345	5.22203	8.794442E+12	5.021799E-6	199131.818757	12.081831	1.026359	0	0
27.794702	3.008535	0.251102	27.438629	5.340943	26.172244	5.340943	8.203793E+12	4.97322E-6	201076.948067	12.033232	1.021528	0	0
28.316856	2.051086	0.261673	27.350733	5.453298	26.037212	5.453298	7.639541E+12	4.917504E-6	203355.18074	12.082876	1.015693	0	0
28.764684	1.139363	0.28075	27.264127	5.557882	25.904834	5.557882	7.121538E+12	4.864003E-6	205591.988264	12.038734	1.010189	0	0
23.639875	6.624135	0.323639	27.177586	5.657274	25.773051	5.657274	6.639005E+12	4.813804E-6	207735.925166	12.082908	1.004183	0	0
29.285725	0	0	27.090571	5.750897	25.641396	5.750897	6.186785E+12	4.762285E-6	209983.223273	12.052363	0.998929	0	0
0	0	0	27.003818	5.838145	25.511001	5.838145	5.766586E+12	4.709216E-6	212349.566667	12.081547	0.993227	0	0
0	0	0	26.917408	5.918839	25.382089	5.918839	5.376417E+12	4.652708E-6	214928.585329	12.060795	0.988079	0	0
0	0	0	26.832876	5.9943	25.256317	5.9943	5.020285E+12	4.601401E-6	217325.098497	12.071021	0.982403	0	0
0	0	0	26.748442	6.06421	25.131603	6.06421	4.688112E+12	4.545972E-6	219974.956453	12.070509	0.976978	0	0
0	0	0	26.664515	6.129869	25.008172	6.129869	4.379714E+12	4.491394E-6	222648.040185	12.065835	0.97117	0	0
0	0	0	26.580424	6.191785	24.885088	6.191785	4.091059E+12	4.436185E-6	225418.920668	12.081942	0.965665	0	0
0	0	0	26.49733	6.249826	24.763897	6.249826	3.824515E+12	4.382983E-6	228155.119773	12.055861	0.96024	0	0
0	0	0	26.413108	6.304704	24.641751	6.304704	3.57207E+12	4.326285E-6	231145.200473	12.092083	0.954736	0	0
0	0	0	26.330504	6.356998	24.522001	6.356998	3.340664E+12	4.277636E-6	233773.984147	12.051746	0.949561	0	0
0	0	0	26.249533	6.404089	24.405462	6.404089	3.128389E+12	4.223543E-6	236768.024933	12.093165	0.944255	0	0
0	0	0	26.16871	6.448466	24.289574	6.448466	2.92995E+12	4.16918E-6	239855.301026	12.044563	0.938935	0	0
0	0	0	26.087918	6.489911	24.174287	6.489911	2.744171E+12	4.11215E-6	243181.761191	12.084119	0.933312	0	0
0	0	0	26.007552	6.529049	24.059944	6.529049	2.571055E+12	4.056106E-6	246541.901242	12.042764	0.928045	0	0
0	0	0	25.928411	6.565589	23.947686	6.565589	2.411254E+12	4.00119E-6	249925.66929	12.076686	0.922382	0	0
0	0	0	25.849645	6.60036	23.836201	6.60036	2.262074E+12	3.948404E-6	253266.864177	12.040954	0.917313	0	0
0	0	0	25.76985	6.632916	23.723845	6.632916	2.120353E+12	3.890011E-6	257068.678711	12.059515	0.911598	0	0
0	0	0	25.690938	6.6639	23.61289	6.6639	1.988932E+12	3.835284E-6	260736.898656	12.038095	0.906542	0	0
0	0	0	25.610179	6.693413	23.499815	6.693413	1.862867E+12	3.775903E-6	264837.312602	12.039834	0.900892	0	0
0	0	0	25.530336	6.721054	23.388311	6.721054	1.746086E+12	3.717237E-6	269016.994446	12.039579	0.895494	0	0
0	0	0	25.450688	6.747036	23.277405	6.747036	1.636886E+12	3.657732E-6	273393.472107	12.021192	0.889804	0	0
0	0	0	25.368786	6.772003	23.163746	6.772003	1.531712E+12	3.594139E-6	278230.72437	12.038	0.884406	0	0
0	0	0	25.288861	6.795553	23.052929	6.795553	1.435595E+12	3.53563E-6	282834.98711	12.001708	0.879165	0	0
0	0	0	25.208935	6.818013	22.942314	6.818013	1.34551E+12	3.47825E-6	287500.879528	12.029774	0.874057	0	0
0	0	0	25.127687	6.839097	22.830297	6.839097	1.259724E+12	3.415638E-6	292771.06797	11.982044	0.868895	0	0
0	0	0	25.046536	6.859234	22.718581	6.859234	1.179502E+12	3.354718E-6	298087.643486	12.018352	0.863655	0	0
0	0	0	24.967755	6.878434	22.610113	6.878434	1.106512E+12	3.301235E-6	302916.918556	11.962868	0.858639	0	0
0	0	0	24.886375	6.896179	22.498656	6.896179	1.035854E+12	3.236933E-6	308934.402949	11.999797	0.853504	0	0
0	0	0	24.804441	6.913491	22.386507	6.913491	9.692718E+11	3.175745E-6	314886.730972	11.945076	0.848647	0	0
0	0	0	24.722653	6.929866	22.274758	6.929866	9.070773E+11	3.114841E-6	321043.725956	11.978645	0.843168	0	0
0	0	0	24.640327	6.945048	22.162621	6.945048	8.485025E+11	3.04962E-6	327909.656831	11.928344	0.838469	0	0
0	0	0	24.557036	6.959446	22.049409	6.959446	7.930901E+11	2.982406E-6	335299.742331	11.954809	0.833282	0	0
0	0	0	24.473403	6.973228	21.935874	6.973228	7.410903E+11	2.916064E-6	342927.990774	11.910945	0.828648	0	0
0	0	0	24.389443	6.986521	21.821995	6.986521	6.923164E+11	2.851665E-6	350672.322116	11.9227	0.823316	0	0
0	0	0	24.302559	6.99896	21.704539	6.99896	6.452209E+11	2.779418E-6	359787.516451	11.893198	0.818656	0	0
0	0	0	24.216949	7.011389	21.58865	7.011389	6.019506E+11	2.717407E-6	367997.894749	11.89013	0.813389	0	0
0	0	0	24.130163	7.022379	21.471686	7.022379	5.610469E+11	2.64493E-6	378081.864005	11.881125	0.808782	0	0
0	0	0	24.040911	7.033256	21.351475	7.033256	5.218777E+11	2.573074E-6	388640.225796	11.850742	0.803819	0	0
0	0	0	23.954223	7.043571	21.234735	7.043571	4.864537E+11	2.507441E-6	398812.977087	11.863106	0.799041	0	0
0	0	0	23.865493	7.053631	21.115361	7.053631	4.52684E+11	2.441607E-6	409566.302795	11.819158	0.794104	0	0
0	0	0	23.775833	7.06261	20.995123	7.06261	4.209407E+11	2.368466E-6	422214.162781	11.836647	0.789603	0	0
0	0	0	23.685486	7.071638	20.873903	7.071638	3.912056E+11	2.301082E-6	434578.089137	11.782432	0.78489	0	0
0	0	0	23.592248	7.080282	20.749002	7.080282	3.627196E+11	2.230478E-6	448334.465384	11.812156	0.780032	0	0
0	0	0	23.49883	7.088053	20.624151	7.088053	3.362588E+11	2.15584E-6	463856.212921	11.75102	0.775531	0	0
0	0	0	23.405918	7.095713	20.499944	7.095713	3.118564E+11	2.087003E-6	479156.06926	11.779955	0.77074	0	0
0	0	0	23.310704	7.103332	20.37269	7.103332	2.886852E+11	2.019989E-6	495052.30354	11.723607	0.766344	0	0
0	0	0	23.215277	7.110302	20.245368	7.110302	2.671896E+11	1.95093E-6	512576.042374	11.746879	0.761777	0	0
0	0	0	23.119229	7.116921	20.117329	7.116921	2.471702E+11	1.882531E-6	531199.876812	11.697856	0.757724	0	0
0	0	0	23.022691	7.123163	19.988755	7.123163	2.285598E+11	1.81454E-6	551103.974264	11.703496	0.753091	0	0
0	0	0	22.924863	7.129421	19.85844	7.129421	2.111297E+11	1.750516E-6	571260.049093	11.670578	0.749118	0	0
0	0	0	22.825304	7.135472	19.725902	7.135472	1.947552E+11	1.687105E-6	592731.355655	11.664937	0.744617	0	0
0	0	0	22.726022	7.140706	19.594034	7.140706	1.796911E+11	1.619382E-6	617519.349802	11.645691	0.740907	0	0
0	0	0	22.624159	7.146468	19.458518	7.146468	1.654455E+11	1.560265E-6	640916.611694	11.617946	0.736551	0	0
0	0	0	22.523897	7.151374	19.325425	7.151374	1.525272E+11	1.497673E-6	667702.430628	11.609451	0.732763	0	0
0	0	0	22.422949	7.156263	19.191401	7.156263	1.405394E+11	1.43903E-6	694912.719922	11.57813	0.728367	0	0
0	0	0	22.321299	7.160921	19.056523	7.160921	1.2942E+11	1.381498E-6	723851.960937	11.581034	0.724473	0	0
0	0	0	22.21857	7.165194	18.920374	7.165194	1.190762E+11	1.322664E-6	756050.151835	11.531395	0.720395	0	0
0	0	0	22.116887	7.169515	18.78553	7.169515	1.096521E+11	1.270098E-6	787340.658111	11.546751	0.716303	0	0
0	0	0	22.014501	7.173132	18.650062	7.173132	1.009163E+11	1.212335E-6	824854.395045	11.492867	0.712171	0	0
0	0	0	21.910581	7.177413	18.51224	7.177413	9.27609E+10	1.165609E-6	857920.658484	11.510712	0.708132	0	0
0	0	0	21.806447	7.180934	18.374467	7.180934	8.52499E+10	1.113339E-6	898199.17316	11.44867	0.704277	0	0
0	0	0	21.701187	7.184751	18.235045	7.184751	7.827551E+10	1.067756E-6	936543.244582	11.472236	0.700027	0	0
0	0	0	21.5956	7.188168	18.095358	7.188168	7.185266E+10	1.020817E-6	979607.271156	11.403589	0.696331	0	0
0	0	0	21.490388	7.191208	17.956315	7.191208	6.597693E+10	9.732847E-7	1027448.583381	11.428575	0.692054	0	0
0	0	0	21.384981	7.194289	17.816969	7.194289	6.057206E+10	9.2967E-7	1075650.515261	11.361671	0.688569	0	0
0	0	0	21.279312	7.197105	17.677386	7.197105	5.559817E+10	8.860749E-7	1128572.808141	11.383827	0.684121	0	0
0	0	0	21.173839	7.200377	17.537803	7.200377	5.104083E+10	8.514016E-7	1174533.84981	11.322373	0.680649	0	0
0	0	0	21.066962	7.202994	17.396688	7.202994	4.680371E+10	8.109808E-7	1233074.851963	11.331271	0.676399	0	0
0	0	0	20.959415	7.20549	17.254734	7.20549	4.289502E+10	7.717921E-7	1295685.745531	11.282769	0.672914	0	0
0	0	0	20.850463	7.208154	17.110833	7.208154	3.9268E+10	7.367233E-7	1357361.665576	11.280639	0.668703	0	0
0	0	0	20.741037	7.210554	16.966425	7.210554	3.593387E+10	7.011623E-7	1426203.233164	11.244887	0.665205	0	0
0	0	0	20.630909	7.212802	16.821156	7.212802	3.28641E+10	6.662497E-7	1500938.805745	11.223707	0.661166	0	0
0	0	0	20.515423	7.215298	16.668723	7.215298	2.992628E+10	6.34125E-7	1576976.076636	11.202302	0.657813	0	0
0	0	0	20.403171	7.217426	16.520695	7.217426	2.732264E+10	6.021692E-7	1660662.700937	11.168265	0.653747	0	0
0	0	0	20.287555	7.219251	16.368409	7.219251	2.487755E+10	5.677963E-7	1761194.930254	11.166702	0.65017	0	0
0	0	0	20.174503	7.221219	16.219382	7.221219	2.269843E+10	5.387484E-7	1856153.849212	11.111013	0.646514	0	0
0	0	0	20.06016	7.223283	16.068594	7.223283	2.068852E+10	5.125068E-7	1951193.513669	11.129823	0.642818	0	0
0	0	0	19.94474	7.225178	15.916469	7.225178	1.884011E+10	4.86241E-7	2056593.4311	11.059347	0.639293	0	0
0	0	0	19.826493	7.226898	15.760724	7.226898	1.711758E+10	4.592115E-7	2177645.7386	11.084	0.635478	0	0
0	0	0	19.708508	7.228546	15.605346	7.228546	1.555583E+10	4.337065E-7	2305706.64906	11.007058	0.632231	0	0
0	0	0	19.588955	7.230242	15.44787	7.230242	1.411861E+10	4.102178E-7	2437729.556109	11.036719	0.628364	0	0
0	0	0	19.468438	7.231786	15.289203	7.231786	1.280416E+10	3.868624E-7	2584898.120125	10.959945	0.625235	0	0
0	0	0	19.347186	7.23353	15.129441	7.23353	1.160517E+10	3.671749E-7	2723497.78685	10.976075	0.621381	0	0
0	0	0	19.223288	7.234754	14.966502	7.234754	1.049591E+10	3.434493E-7	2911638.006771	10.908645	0.6182	0	0
0	0	0	19.098312	7.236194	14.80201	7.236194	9.48438E+9	3.233752E-7	3092382.819883	10.920626	0.61449	0	0
0	0	0	18.971016	7.237322	14.634653	7.237322	8.554231E+9	3.015765E-7	3315908.180314	10.8661	0.611309	0	0
0	0	0	18.841368	7.238698	14.464053	7.238698	7.700602E+9	2.832268E-7	3530738.747508	10.855966	0.607864	0	0
0	0	0	18.711311	7.239866	14.29303	7.239866	6.929862E+9	2.645957E-7	3779350.649848	10.813371	0.604683	0	0
0	0	0	18.579589	7.241249	14.119678	7.241249	6.227844E+9	2.490405E-7	4015411.009881	10.786803	0.601224	0	0
0	0	0	18.445531	7.242305	13.943456	7.242305	5.586352E+9	2.317539E-7	4314921.560062	10.768794	0.598017	0	0
0	0	0	18.311619	7.243121	13.767565	7.243121	5.011534E+9	2.14103E-7	4670650.231546	10.730124	0.594571	0	0
0	0	0	18.174196	7.244593	13.58665	7.244593	4.483078E+9	2.024061E-7	4940562.283483	10.716525	0.591311	0	0
0	0	0	18.035139	7.245753	13.403777	7.245753	4.005038E+9	1.892973E-7	5282694.285798	10.66012	0.588103	0	0
0	0	0	17.893551	7.246673	13.217729	7.246673	3.570634E+9	1.752804E-7	5705143.501795	10.660024	0.584803	0	0
0	0	0	17.751276	7.247656	13.030729	7.247656	3.181578E+9	1.629081E-7	6138428.85924	10.602642	0.581569	0	0
0	0	0	17.607727	7.24836	12.842233	7.24836	2.831985E+9	1.49618E-7	6683689.309692	10.605721	0.578428	0	0
0	0	0	17.462088	7.249352	12.650797	7.249352	2.516536E+9	1.391874E-7	7184558.962922	10.5353	0.575405	0	0
0	0	0	17.316317	7.2502	12.459275	7.2502	2.235987E+9	1.288354E-7	7761841.317409	10.542792	0.572065	0	0
0	0	0	17.168374	7.250888	12.265004	7.250888	1.983218E+9	1.182789E-7	8454594.392228	10.472509	0.569016	0	0
0	0	0	17.017573	7.251728	12.066876	7.251728	1.75495E+9	1.093473E-7	9145170.791843	10.485823	0.565769	0	0
0	0	0	16.865236	7.252472	11.866792	7.252472	1.551024E+9	1.006284E-7	9937557.084401	10.41274	0.562759	0	0
0	0	0	16.70764	7.253191	11.659823	7.253191	1.36496E+9	9.223965E-8	1.084133E+7	10.422968	0.559538	0	0
0	0	0	16.551693	7.253879	11.455029	7.253879	1.202825E+9	8.464683E-8	1.181379E+7	10.346053	0.556714	0	0
0	0	0	16.396465	7.254911	11.250924	7.254911	1.060567E+9	7.957507E-8	1.256675E+7	10.353346	0.553532	0	0
0	0	0	16.240894	7.255151	11.046922	7.255151	9.348732E+8	7.124082E-8	1.40369E+7	10.290032	0.550589	0	0
0	0	0	16.081043	7.256063	10.836824	7.256063	8.212215E+8	6.65321E-8	1.503034E+7	10.28772	0.54754	0	0
0	0	0	15.921699	7.256471	10.627745	7.256471	7.216827E+8	6.016777E-8	1.662019E+7	10.220595	0.544702	0	0
0	0	0	15.760803	7.257063	10.416491	7.257063	6.334112E+8	5.513426E-8	1.813754E+7	10.215865	0.541599	0	0
0	0	0	15.598191	7.257526	10.203077	7.257526	5.551639E+8	5.005112E-8	1.997957E+7	10.153159	0.538867	0	0
0	0	0	15.4338	7.258262	9.98712	7.258262	4.858808E+8	4.643848E-8	2.153387E+7	10.152303	0.535725	0	0
0	0	0	15.268183	7.258598	9.769849	7.258598	4.248218E+8	4.174863E-8	2.395288E+7	10.090364	0.533059	0	0
0	0	0	15.0984	7.259406	9.546755	7.259406	3.701834E+8	3.902777E-8	2.562278E+7	10.082475	0.529891	0	0
0	0	0	14.928912	7.259654	9.324467	7.259654	3.226493E+8	3.47939E-8	2.874067E+7	10.020281	0.527317	0	0
0	0	0	14.75748	7.259998	9.099553	7.259998	2.80776E+8	3.12698E-8	3.197974E+7	10.011276	0.524241	0	0
0	0	0	14.585673	7.260414	8.874085	7.260414	2.442625E+8	2.832491E-8	3.530462E+7	9.959243	0.521562	0	0
0	0	0	14.411186	7.261006	8.644961	7.261006	2.120364E+8	2.612048E-8	3.828414E+7	9.946426	0.518367	0	0
0	0	0	14.233612	7.261437	8.41191	7.261437	1.836017E+8	2.369541E-8	4.220227E+7	9.891549	0.515978	0	0
0	0	0	14.052967	7.261813	8.174874	7.261813	1.585848E+8	2.135233E-8	4.68333E+7	9.866581	0.512665	0	0
0	0	0	13.872127	7.262229	7.937542	7.262229	1.369549E+8	1.936714E-8	5.163385E+7	9.824593	0.510315	0	0
0	0	0	13.689097	7.262925	7.697105	7.262925	1.180654E+8	1.822935E-8	5.485659E+7	9.79235	0.507279	0	0
0	0	0	13.504418	7.263101	7.454927	7.263101	1.016451E+8	1.606723E-8	6.223848E+7	9.759873	0.50493	0	0
0	0	0	13.316896	7.263501	7.208833	7.263501	8.730715E+7	1.458919E-8	6.85439E+7	9.712325	0.501775	0	0
0	0	0	13.126271	7.263805	6.958747	7.263805	7.480318E+7	1.306708E-8	7.652822E+7	9.681263	0.49932	0	0
0	0	0	12.928851	7.264045	6.699805	7.264045	6.373784E+7	1.15479E-8	8.659586E+7	9.631065	0.496363	0	0
0	0	0	12.73228	7.264181	6.442062	7.264181	5.434676E+7	1.005826E-8	9.942076E+7	9.612046	0.49371	0	0
0	0	0	12.53695	7.264684	6.185622	7.264684	4.638603E+7	9.328609E-9	1.071971E+8	9.546095	0.491149	0	0
0	0	0	12.337308	7.264996	5.923691	7.264996	3.945319E+7	8.383959E-9	1.192754E+8	9.544458	0.488337	0	0
0	0	0	12.135657	7.2649	5.659486	7.2649	3.350191E+7	6.997293E-9	1.429124E+8	9.471692	0.485763	0	0
0	0	0	11.934169	7.26538	5.394978	7.26538	2.845211E+7	6.49947E-9	1.538587E+8	9.466708	0.483018	0	0
0	0	0	11.730378	7.265372	5.127886	7.265372	2.411839E+7	5.500907E-9	1.817882E+8	9.386831	0.480496	0	0
0	0	0	11.525428	7.265844	4.858834	7.265844	2.042555E+7	5.130704E-9	1.94905E+8	9.386355	0.47783	0	0
0	0	0	11.315871	7.266132	4.583906	7.266132	1.723364E+7	4.614216E-9	2.167216E+8	9.312009	0.475243	0	0
0	0	0	11.106951	7.266444	4.309786	7.266444	1.454804E+7	4.194636E-9	2.383997E+8	9.312086	0.472563	0	0
0	0	0	10.897214	7.26686	4.034492	7.26686	1.227283E+7	3.942807E-9	2.536264E+8	9.229136	0.470227	0	0
0	0	0	10.687167	7.266724	3.759309	7.266724	1.035083E+7	3.205639E-9	3.119503E+8	9.227614	0.467521	0	0
0	0	0	10.473967	7.266908	3.479689	7.266908	8707548	2.834776E-9	3.527616E+8	9.152107	0.465092	0	0
0	0	0	10.260343	7.267252	3.199354	7.267252	7322624	2.63623E-9	3.793295E+8	9.146011	0.462425	0	0
0	0	0	10.046049	7.267668	2.918064	7.267668	6154628	2.540975E-9	3.935497E+8	9.072271	0.459917	0	0
0	0	0	9.832637	7.267828	2.638175	7.267828	5176636	2.265082E-9	4.414851E+8	9.061395	0.457449	0	0
0	0	0	9.617428	7.26762	2.356296	7.26762	4347708	1.765083E-9	5.665456E+8	8.983867	0.45502	0	0
0	0	0	9.401141	7.26794	2.072476	7.26794	3648328	1.666142E-9	6.001889E+8	8.988646	0.452235	0	0
0	0	0	9.179317	7.26806	1.781595	7.26806	3047736	1.460254E-9	6.848125E+8	8.909324	0.449951	0	0
0	0	0	8.960416	7.268379	1.494339	7.268379	2552056	1.407147E-9	7.10658E+8	8.897703	0.447523	0	0
0	0	0	8.745763	7.268395	1.212959	7.268395	2144364	1.191337E-9	8.393931E+8	8.82191	0.445186	0	0
0	0	0	8.530325	7.268627	0.930325	7.268627	1800656	1.124226E-9	8.895009E+8	8.811147	0.442612	0	0
0	0	0	8.31755	7.268555	0.651497	7.268555	1515308	9.110689E-10	1.097612E+9	8.730245	0.440328	0	0
0	0	0	8.106964	7.268851	0.375148	7.268851	1277444	9.058325E-10	1.103957E+9	8.723805	0.437807	0	0
0	0	0	7.896901	7.268931	0.099711	7.268931	1077376	8.028909E-10	1.245499E+9	8.643881	0.435708	0	0
0	0	0	7.688356	7.268979	-0.173702	7.268979	909760	6.993594E-10	1.42988E+9	8.645435	0.432936	0	0
0	0	0	7.480678	7.269067	-0.446024	7.269067	768760	6.272324E-10	1.594305E+9	8.55336	0.43097	0	0
0	0	0	7.276822	7.269403	-0.71361	7.269403	651632	6.943517E-10	1.440192E+9	8.549458	0.428462	0	0
0	0	0	7.076249	7.269443	-0.976571	7.269443	553820	6.124367E-10	1.632822E+9	8.468243	0.426442	0	0
0	0	0	6.877554	7.269451	-1.237034	7.269451	471408	5.252737E-10	1.903769E+9	8.471	0.423736	0	0
0	0	0	6.681473	7.269651	-1.494287	7.269651	402112	5.534754E-10	1.806765E+9	8.380098	0.421822	0	0
0	0	0	6.487957	7.269571	-1.747864	7.269571	343716	4.324049E-10	2.312647E+9	8.371591	0.419248	0	0
0	0	0	6.297658	7.269971	-1.99777	7.269971	294568	6.502124E-10	1.537959E+9	8.287239	0.417294	0	0
0	0	0	6.112228	7.269819	-2.240667	7.269819	253444	4.347682E-10	2.300076E+9	8.289329	0.414773	0	0
0	0	0	5.929802	7.269955	-2.479955	7.269955	218596	4.683786E-10	2.135025E+9	8.21367	0.412859	0	0
0	0	0	5.750301	7.269907	-2.715198	7.269907	188984	3.722127E-10	2.686636E+9	8.198835	0.410576	0	0
0	0	0	5.572727	7.269947	-2.948017	7.269947	163644	3.455722E-10	2.893752E+9	8.114773	0.408635	0	0
