Vload_(V)	ILoad_(A)	RsLoad (ohm)	SunsVoc_Voltage_(V)	SunsVoc_Current_(A)	Model_Voltage_(V)	Model_Current_(A)	Carrier_Density_(cm-3)	Lifetime_(s)	Inverse_Lifetime_(s-1)	Efficiency_(%)	Intensity_(suns)	Dark_IV_Voltage_(V)	Dark_IV_Current_(A)
3.994549	8.263372	0	24.038475	-0.868123	24.167148	-0.868123	1.261139E+15	5.903603E-5	16936.167258	12.269196	1.093001	0	0
10.224393	8.158612	0.231227	23.996201	-0.594873	24.084878	-0.594873	1.210223E+15	5.840014E-5	17120.814608	12.264288	1.092242	0	0
11.720653	8.103325	0.266945	23.908746	-0.085431	23.921631	-0.085431	1.110806E+15	5.687352E-5	17580.825564	12.224503	1.090277	0	0
13.219152	8.02389	0.27111	23.797425	0.498891	23.721065	0.498891	9.951219E+14	5.47848E-5	18251.595827	12.286738	1.088153	0	0
14.636953	7.898777	0.275305	23.672547	1.068438	23.506333	1.068438	8.786707E+14	5.2203E-5	19154.705632	12.254563	1.087236	0	0
16.071783	7.706904	0.262282	23.547775	1.581337	23.297809	1.581337	7.751033E+14	4.958462E-5	20166.545005	12.271356	1.086319	0	0
16.559922	7.614095	0.257805	23.425967	2.035259	23.099272	2.035259	6.851351E+14	4.70236E-5	21265.137794	12.26969	1.085554	0	0
17.044115	7.511439	0.250995	23.305703	2.441907	22.907837	2.441907	6.060466E+14	4.450102E-5	22470.787844	12.227369	1.083865	0	0
17.523256	7.38677	0.2437	23.184117	2.819019	22.717924	2.819019	5.349482E+14	4.200119E-5	23808.375252	12.27706	1.081207	0	0
17.992739	7.240916	0.23694	23.06627	3.15943	22.536307	3.15943	4.736841E+14	3.967156E-5	25206.602895	12.238038	1.077764	0	0
18.472411	7.06492	0.229851	22.944716	3.486375	22.351402	3.486375	4.175676E+14	3.736526E-5	26762.540226	12.247869	1.073496	0	0
18.932116	6.864628	0.220898	22.820034	3.79872	22.164054	3.79872	3.666832E+14	3.510747E-5	28483.746685	12.264689	1.069684	0	0
19.404931	6.613372	0.212975	22.695139	4.08906	21.978768	4.08906	3.217493E+14	3.294798E-5	30350.698667	12.222892	1.06657	0	0
19.868069	6.320532	0.204516	22.569052	4.361024	21.793995	4.361024	2.818269E+14	3.087114E-5	32392.583449	12.272645	1.063134	0	0
20.323358	5.985991	0.19585	22.442859	4.612933	21.611343	4.612933	2.467185E+14	2.889035E-5	34613.532468	12.218788	1.05975	0	0
20.776432	5.590018	0.185766	22.315759	4.848554	21.429397	4.848554	2.156892E+14	2.699958E-5	37037.529098	12.232451	1.054941	0	0
21.206804	5.141106	0.176662	22.190072	5.065946	21.251184	5.065946	1.887768E+14	2.523738E-5	39623.701893	12.241788	1.050304	0	0
21.637973	4.609502	0.169585	22.066313	5.262646	21.077892	5.262646	1.655093E+14	2.357721E-5	42413.800867	12.207139	1.045126	0	0
22.048601	4.01818	0.163259	21.943828	5.444528	20.907856	5.444528	1.452675E+14	2.202894E-5	45394.804122	12.251685	1.040014	0	0
22.445361	3.356239	0.159568	21.821922	5.613507	20.740057	5.613507	1.275502E+14	2.057564E-5	48601.130458	12.204289	1.035173	0	0
22.815457	2.653735	0.16197	21.701691	5.768583	20.576013	5.768583	1.121713E+14	1.921958E-5	52030.247676	12.219799	1.030134	0	0
23.156781	1.92406	0.168048	21.580088	5.913984	20.411597	5.913984	9.848424E+13	1.791877E-5	55807.397312	12.225881	1.025365	0	0
23.453301	1.219598	0.176357	21.456043	6.051022	20.245404	6.051022	8.622735E+13	1.666047E-5	60022.292517	12.186251	1.020134	0	0
23.69602	0.596106	0.180321	21.329801	6.180007	20.077691	6.180007	7.530699E+13	1.545134E-5	64719.296192	12.227778	1.01431	0	0
18.294311	7.140687	0.230508	21.204596	6.300659	19.912201	6.300659	6.583415E+13	1.433807E-5	69744.394125	12.179279	1.008465	0	0
23.901809	0	0	21.078982	6.413894	19.747184	6.413894	5.752096E+13	1.329453E-5	75218.895935	12.206767	1.002496	0	0
0	0	0	20.953736	6.518591	19.583805	6.518591	5.027225E+13	1.231639E-5	81192.590734	12.202612	0.996902	0	0
0	0	0	20.827511	6.617756	19.419967	6.617756	4.388677E+13	1.13999E-5	87720.036436	12.167561	0.991395	0	0
0	0	0	20.700239	6.712055	19.255486	6.712055	3.82662E+13	1.054413E-5	94839.451618	12.211491	0.985478	0	0
0	0	0	20.571334	6.799602	19.090138	6.799602	3.330443E+13	9.725798E-6	102819.328487	12.153859	0.980069	0	0
0	0	0	20.442822	6.881425	18.926045	6.881425	2.899645E+13	8.969114E-6	111493.73399	12.191992	0.973816	0	0
0	0	0	20.314611	6.957147	18.763234	6.957147	2.525255E+13	8.263868E-6	121008.701667	12.166507	0.968275	0	0
0	0	0	20.18453	7.028833	18.598809	7.028833	2.194668E+13	7.599069E-6	131595.06968	12.150532	0.962108	0	0
0	0	0	20.053682	7.09573	18.434226	7.09573	1.905699E+13	6.976548E-6	143337.363197	12.180768	0.956383	0	0
0	0	0	19.923209	7.157985	18.270792	7.157985	1.655386E+13	6.401491E-6	156213.605369	12.130851	0.950789	0	0
0	0	0	19.795227	7.215298	18.111038	7.215298	1.441778E+13	5.880342E-6	170058.135068	12.176499	0.944833	0	0
0	0	0	19.667425	7.268243	17.952227	7.268243	1.255943E+13	5.39494E-6	185358.875308	12.135089	0.939523	0	0
0	0	0	19.537809	7.318149	17.791789	7.318149	1.091894E+13	4.9379E-6	202515.243312	12.142891	0.93356	0	0
0	0	0	19.406356	7.365409	17.62962	7.365409	9.473712E+12	4.509804E-6	221739.128407	12.149161	0.928105	0	0
0	0	0	19.275671	7.409954	17.468745	7.409954	8.226436E+12	4.120461E-6	242691.288238	12.111743	0.922373	0	0
0	0	0	19.143107	7.452342	17.306009	7.452342	7.128773E+12	3.757282E-6	266149.820316	12.155997	0.916734	0	0
0	0	0	19.010086	7.492151	17.143163	7.492151	6.174431E+12	3.422269E-6	292203.793864	12.104817	0.911556	0	0
0	0	0	18.876061	7.529862	16.979477	7.529862	5.341979E+12	3.113093E-6	321223.922081	12.127133	0.906088	0	0
0	0	0	18.740393	7.565313	16.814272	7.565313	4.613517E+12	2.825114E-6	353967.971038	12.119648	0.900817	0	0
0	0	0	18.603509	7.599137	16.64789	7.599137	3.979116E+12	2.560713E-6	390516.264893	12.09362	0.895481	0	0
0	0	0	18.466315	7.631139	16.481439	7.631139	3.430771E+12	2.319587E-6	431111.266931	12.131692	0.890033	0	0
0	0	0	18.327944	7.661299	16.313937	7.661299	2.954211E+12	2.097436E-6	476772.633177	12.073908	0.884901	0	0
0	0	0	18.188119	7.690164	16.144935	7.690164	2.539838E+12	1.894041E-6	527971.567833	12.118804	0.879486	0	0
0	0	0	18.04787	7.717751	15.975622	7.717751	2.182572E+12	1.70991E-6	584825.933185	12.07822	0.87473	0	0
0	0	0	17.90678	7.744159	15.805503	7.744159	1.873847E+12	1.54271E-6	648209.961367	12.085014	0.869413	0	0
0	0	0	17.764677	7.768852	15.634533	7.768852	1.607024E+12	1.389104E-6	719888.632753	12.096474	0.864473	0	0
0	0	0	17.620572	7.791828	15.461583	7.791828	1.375211E+12	1.246647E-6	802151.958435	12.053414	0.859473	0	0
0	0	0	17.475962	7.81383	15.288188	7.81383	1.17619E+12	1.118416E-6	894121.287372	12.099544	0.854242	0	0
0	0	0	17.33118	7.834324	15.114893	7.834324	1.005781E+12	1.00206E-6	997944.461767	12.041408	0.849612	0	0
0	0	0	17.185859	7.853923	14.941111	7.853923	8.59559E+11	8.973703E-7	1114367.157653	12.07409	0.844276	0	0
0	0	0	17.040619	7.87265	14.76756	7.87265	7.34658E+11	8.037364E-7	1244188.950332	12.056712	0.839612	0	0
0	0	0	16.894245	7.890294	14.592902	7.890294	6.271348E+11	7.185498E-7	1391692.032384	12.035738	0.834599	0	0
0	0	0	16.747053	7.907071	14.417448	7.907071	5.348752E+11	6.416996E-7	1558361.624899	12.066111	0.829718	0	0
0	0	0	16.600001	7.923015	14.242304	7.923015	4.56256E+11	5.730206E-7	1745138.011681	12.014523	0.82485	0	0
0	0	0	16.45187	7.938158	14.066057	7.938158	3.88739E+11	5.10957E-7	1957111.870159	12.056528	0.819844	0	0
0	0	0	16.302808	7.952562	13.888864	7.952562	3.308796E+11	4.550628E-7	2197498.886598	12.016861	0.815233	0	0
0	0	0	16.153502	7.966157	13.711549	7.966157	2.815571E+11	4.049409E-7	2469496.423207	12.025313	0.810286	0	0
0	0	0	16.003925	7.978992	13.534074	7.978992	2.395168E+11	3.600251E-7	2777584.289423	12.029025	0.805682	0	0
0	0	0	15.85158	7.991408	13.353441	7.991408	2.031447E+11	3.192935E-7	3131914.858624	11.991427	0.800979	0	0
0	0	0	15.697022	8.003174	13.170368	8.003174	1.718839E+11	2.823755E-7	3541384.255484	12.03175	0.796217	0	0
0	0	0	15.543338	8.014298	12.988441	8.014298	1.455711E+11	2.49829E-7	4002737.279782	11.97736	0.791758	0	0
0	0	0	15.388518	8.025067	12.805241	8.025067	1.231351E+11	2.208744E-7	4527459.962737	12.010145	0.786936	0	0
0	0	0	15.233747	8.035218	12.622233	8.035218	1.041626E+11	1.951551E-7	5124130.341333	11.985943	0.782596	0	0
0	0	0	15.077621	8.044905	12.437738	8.044905	8.798417E+10	1.721532E-7	5808780.018247	11.973978	0.777939	0	0
0	0	0	14.920073	8.054101	12.251695	8.054101	7.420447E+10	1.515715E-7	6597547.159825	11.998364	0.773342	0	0
0	0	0	14.762281	8.062906	12.06544	8.062906	6.25663E+10	1.334124E-7	7495554.647051	11.944521	0.769054	0	0
0	0	0	14.603655	8.071334	11.878288	8.071334	5.270595E+10	1.173189E-7	8523773.093574	11.995851	0.764325	0	0
0	0	0	14.443274	8.079139	11.689253	8.079139	4.431535E+10	1.028212E-7	9725624.022963	11.938241	0.760235	0	0
0	0	0	14.282492	8.086798	11.499754	8.086798	3.724439E+10	9.016354E-8	1.109096E+7	11.966974	0.755611	0	0
0	0	0	14.120599	8.094094	11.30904	8.094094	3.12641E+10	7.894816E-8	1.266654E+7	11.945265	0.75166	0	0
0	0	0	13.955497	8.101054	11.114665	8.101054	2.615314E+10	6.887362E-8	1.451935E+7	11.932635	0.747148	0	0
0	0	0	13.785437	8.107568	10.914636	8.107568	2.176075E+10	5.970245E-8	1.674973E+7	11.957311	0.743052	0	0
0	0	0	13.617656	8.114278	10.717143	8.114278	1.815072E+10	5.203903E-8	1.921635E+7	11.90726	0.738897	0	0
0	0	0	13.449352	8.12037	10.51922	8.12037	1.513103E+10	4.522939E-8	2.210952E+7	11.949539	0.734688	0	0
0	0	0	13.280754	8.125966	10.321094	8.125966	1.26097E+10	3.922789E-8	2.549207E+7	11.901141	0.730902	0	0
0	0	0	13.109975	8.131485	10.120422	8.131485	1.048377E+10	3.397909E-8	2.942987E+7	11.919498	0.726569	0	0
0	0	0	12.937726	8.136755	9.918095	8.136755	8.70241E+9	2.93793E-8	3.403757E+7	11.912204	0.722736	0	0
0	0	0	12.764612	8.142128	9.714684	8.142128	7.216976E+9	2.544435E-8	3.930146E+7	11.88608	0.718647	0	0
0	0	0	12.588884	8.146821	9.508453	8.146821	5.968206E+9	2.188878E-8	4.568551E+7	11.916286	0.714841	0	0
0	0	0	12.412347	8.151486	9.301259	8.151486	4.9312E+9	1.883956E-8	5.307981E+7	11.86536	0.710969	0	0
0	0	0	12.234512	8.155792	9.092658	8.155792	4.068663E+9	1.616644E-8	6.185652E+7	11.902018	0.706992	0	0
0	0	0	12.053116	8.160293	8.879806	8.160293	3.344097E+9	1.386771E-8	7.210996E+7	11.863181	0.703225	0	0
0	0	0	11.870266	8.164136	8.665488	8.164136	2.744248E+9	1.182087E-8	8.459617E+7	11.876177	0.699136	0	0
0	0	0	11.688266	8.168233	8.452029	8.168233	2.254066E+9	1.012754E-8	9.874069E+7	11.874176	0.695481	0	0
0	0	0	11.505636	8.171844	8.238003	8.171844	1.850183E+9	8.64086E-9	1.157292E+8	11.840666	0.691583	0	0
0	0	0	11.322321	8.175401	8.023173	8.175401	1.517541E+9	7.373866E-9	1.356141E+8	11.877584	0.687797	0	0
0	0	0	11.137421	8.178853	7.806516	8.178853	1.242574E+9	6.284385E-9	1.591246E+8	11.819128	0.684149	0	0
0	0	0	10.95239	8.182246	7.589705	8.182246	1.017286E+9	5.36016E-9	1.865616E+8	11.860949	0.680251	0	0
0	0	0	10.766241	8.185471	7.371635	8.185471	8.318368E+8	4.564464E-9	2.190838E+8	11.822859	0.67661	0	0
0	0	0	10.578858	8.188205	7.152311	8.188205	6.792884E+8	3.862994E-9	2.588666E+8	11.826315	0.672738	0	0
0	0	0	10.391778	8.191153	6.933228	8.191153	5.548967E+8	3.284408E-9	3.044689E+8	11.833002	0.669044	0	0
0	0	0	10.202631	8.194215	6.711668	8.194215	4.522722E+8	2.795482E-9	3.577201E+8	11.788294	0.665482	0	0
0	0	0	10.010699	8.196677	6.487099	8.196677	3.675192E+8	2.355476E-9	4.245427E+8	11.833979	0.661604	0	0
0	0	0	9.821633	8.199247	6.265802	8.199247	2.995754E+8	1.996992E-9	5.00753E+8	11.77065	0.658246	0	0
0	0	0	9.632772	8.201936	6.044672	8.201936	2.442463E+8	1.699428E-9	5.884334E+8	11.818464	0.654216	0	0
0	0	0	9.444557	8.204407	5.824369	8.204407	1.992751E+8	1.444627E-9	6.9222E+8	11.771363	0.650931	0	0
0	0	0	9.255794	8.206638	5.603518	8.206638	1.624879E+8	1.224246E-9	8.168292E+8	11.783685	0.647093	0	0
0	0	0	9.068296	8.208709	5.384195	8.208709	1.326733E+8	1.037487E-9	9.638674E+8	11.780259	0.643649	0	0
0	0	0	8.881461	8.210966	5.165544	8.210966	1.084068E+8	8.842434E-10	1.13091E+9	11.745375	0.640114	0	0
0	0	0	8.694878	8.212919	4.947309	8.212919	8.860298E+7	7.50687E-10	1.332113E+9	11.784225	0.63642	0	0
0	0	0	8.509897	8.214732	4.730989	8.214732	7.254239E+7	6.375142E-10	1.568592E+9	11.721507	0.633188	0	0
0	0	0	8.323666	8.216544	4.5132	8.216544	5.931283E+7	5.41424E-10	1.846981E+9	11.767415	0.629329	0	0
0	0	0	8.136552	8.218406	4.294346	8.218406	4.844972E+7	4.60579E-10	2.17118E+9	11.718643	0.626269	0	0
0	0	0	7.953351	8.22016	4.080088	8.22016	3.974393E+7	3.931483E-10	2.54357E+9	11.730708	0.622463	0	0
0	0	0	7.771261	8.221672	3.867225	8.221672	3.264164E+7	3.34604E-10	2.988607E+9	11.732468	0.619185	0	0
0	0	0	7.591286	8.223384	3.65672	8.223384	2.686991E+7	2.872342E-10	3.48148E+9	11.699162	0.615609	0	0
0	0	0	7.411834	8.224779	3.446965	8.224779	2.213126E+7	2.451268E-10	4.079521E+9	11.731519	0.612292	0	0
0	0	0	7.234562	8.226396	3.239632	8.226396	1.827131E+7	2.112239E-10	4.734312E+9	11.677136	0.608934	0	0
0	0	0	7.059038	8.227868	3.034396	8.227868	1.511312E+7	1.819558E-10	5.495841E+9	11.719682	0.605339	0	0
0	0	0	6.884266	8.229103	2.830142	8.229103	1.251098E+7	1.560574E-10	6.407897E+9	11.67435	0.602266	0	0
0	0	0	6.711903	8.23057	2.628571	8.23057	1.038388E+7	1.35318E-10	7.390001E+9	11.683274	0.598743	0	0
0	0	0	6.540797	8.23161	2.428669	8.23161	8630157	1.161473E-10	8.609756E+9	11.676956	0.595683	0	0
0	0	0	6.368818	8.232832	2.22765	8.232832	7165845	1.002985E-10	9.970238E+9	11.648754	0.592193	0	0
0	0	0	6.198856	8.234118	2.028942	8.234118	5962979	8.712959E-11	1.147716E+10	11.682032	0.588908	0	0
0	0	0	6.032553	8.235171	1.834606	8.235171	4981696	7.551132E-11	1.324305E+10	11.626656	0.58567	0	0
0	0	0	5.868366	8.236334	1.642673	8.236334	4171425	6.594867E-11	1.516331E+10	11.666215	0.582359	0	0
0	0	0	5.7068	8.237324	1.453877	8.237324	3502858	5.748406E-11	1.739613E+10	11.622039	0.579285	0	0
0	0	0	5.546475	8.238178	1.266592	8.238178	2945396	4.997407E-11	2.001038E+10	11.633689	0.575842	0	0
0	0	0	5.388242	8.239296	1.0816	8.239296	2482255	4.40706E-11	2.269087E+10	11.631542	0.572695	0	0
0	0	0	5.233226	8.240159	0.900486	8.240159	2099231	3.865589E-11	2.586928E+10	11.596103	0.569476	0	0
0	0	0	5.079289	8.241226	0.720514	8.241226	1777380	3.430672E-11	2.914881E+10	11.632968	0.566225	0	0
0	0	0	4.927164	8.242057	0.542775	8.242057	1507827	3.023881E-11	3.307008E+10	11.570349	0.563237	0	0
0	0	0	4.778984	8.242934	0.369604	8.242934	1284621	2.686752E-11	3.721967E+10	11.62118	0.55982	0	0
0	0	0	4.631793	8.243711	0.197633	8.243711	1095627	2.381998E-11	4.198156E+10	11.567731	0.556957	0	0
0	0	0	4.484357	8.244583	0.02532	8.244583	934190	2.125286E-11	4.705249E+10	11.588576	0.553593	0	0
0	0	0	4.338766	8.24545	-0.144843	8.24545	798131	1.903647E-11	5.253074E+10	11.572594	0.550737	0	0
0	0	0	4.198468	8.245973	-0.308655	8.245973	685802	1.684834E-11	5.935304E+10	11.547359	0.547558	0	0
0	0	0	4.059754	8.246899	-0.470844	8.246899	590292	1.531764E-11	6.528422E+10	11.575098	0.544484	0	0
0	0	0	3.92443	8.247476	-0.628895	8.247476	509949	1.3713E-11	7.292349E+10	11.517126	0.541595	0	0
0	0	0	3.791229	8.248103	-0.784502	8.248103	441553	1.23612E-11	8.08983E+10	11.567059	0.53831	0	0
0	0	0	3.660674	8.248721	-0.937022	8.248721	383427	1.118653E-11	8.939319E+10	11.509896	0.535592	0	0
0	0	0	3.532611	8.249352	-1.08665	8.249352	333850	1.017874E-11	9.824401E+10	11.537029	0.532294	0	0
0	0	0	3.407504	8.249979	-1.232832	8.249979	291614	9.30711E-12	1.074447E+11	11.510438	0.529788	0	0
0	0	0	3.28448	8.250587	-1.376579	8.250587	255296	8.535896E-12	1.171523E+11	11.497315	0.52651	0	0
0	0	0	3.163162	8.251146	-1.518311	8.251146	223914	7.828742E-12	1.277345E+11	11.514394	0.523779	0	0
0	0	0	3.044989	8.251541	-1.656287	8.251541	197057	7.119863E-12	1.404521E+11	11.466523	0.520837	0	0
0	0	0	2.929969	8.252191	-1.790736	8.252191	174015	6.652567E-12	1.503179E+11	11.507742	0.517823	0	0
0	0	0	2.816541	8.252704	-1.923253	8.252704	153932	6.167927E-12	1.62129E+11	11.450569	0.515184	0	0
0	0	0	2.705515	8.253199	-2.052962	8.253199	136520	5.736466E-12	1.743233E+11	11.485411	0.512025	0	0
0	0	0	2.59604	8.253785	-2.180918	8.253785	121281	5.407599E-12	1.849249E+11	11.44872	0.509459	0	0
0	0	0	2.488338	8.253985	-2.306586	8.253985	107950	4.915679E-12	2.034307E+11	11.443067	0.506457	0	0
0	0	0	2.385005	8.254466	-2.427325	8.254466	96539	4.633725E-12	2.158091E+11	11.454304	0.503766	0	0
0	0	0	2.283665	8.254744	-2.545623	8.254744	86521	4.286227E-12	2.333054E+11	11.412971	0.500877	0	0
0	0	0	2.185355	8.25517	-2.660478	8.25517	77796	4.054624E-12	2.46632E+11	11.452597	0.498054	0	0
0	0	0	2.089462	8.255684	-2.772567	8.255684	70135	3.899367E-12	2.564519E+11	11.393195	0.495435	0	0
0	0	0	1.996486	8.256056	-2.881176	8.256056	63427	3.705946E-12	2.698367E+11	11.425383	0.492612	0	0
0	0	0	1.905689	8.256451	-2.987258	8.256451	57497	3.551285E-12	2.815882E+11	11.3903	0.490053	0	0
0	0	0	1.816943	8.256692	-3.09086	8.256692	52237	3.342675E-12	2.991616E+11	11.388263	0.487276	0	0
0	0	0	1.730909	8.257078	-3.191388	8.257078	47597	3.232591E-12	3.093494E+11	11.393577	0.484631	0	0
0	0	0	1.647545	8.257523	-3.288839	8.257523	43494	3.178744E-12	3.145897E+11	11.352006	0.481973	0	0
0	0	0	1.566893	8.257728	-3.382986	8.257728	39863	3.018873E-12	3.312495E+11	11.393659	0.479209	0	0
0	0	0	1.488887	8.258118	-3.474161	8.258118	36639	2.981017E-12	3.354559E+11	11.324339	0.476887	0	0
0	0	0	1.41329	8.258395	-3.562459	8.258395	33763	2.899956E-12	3.448328E+11	11.371653	0.474018	0	0
0	0	0	1.339899	8.2587	-3.648204	8.2587	31188	2.85326E-12	3.504763E+11	11.316608	0.471729	0	0
0	0	0	1.26863	8.2587	-3.73129	8.2587	28875	2.641653E-12	3.785508E+11	11.338123	0.468939	0	0
0	0	0	1.199911	8.259095	-3.811645	8.259095	26807	2.679039E-12	3.732682E+11	11.320621	0.466525	0	0
0	0	0	1.133739	8.259245	-3.888882	8.259245	24957	2.584732E-12	3.868873E+11	11.292123	0.463959	0	0
0	0	0	1.070361	8.259567	-3.962967	8.259567	23304	2.618101E-12	3.819562E+11	11.323439	0.461406	0	0
0	0	0	1.009449	8.259731	-4.03408	8.259731	21818	2.561227E-12	3.904379E+11	11.260893	0.459104	0	0
0	0	0	0.950513	8.260117	-4.103026	8.260117	20472	2.688247E-12	3.719897E+11	11.314615	0.456294	0	0
0	0	0	0.89335	8.26024	-4.169745	8.26024	19245	2.626059E-12	3.807988E+11	11.246472	0.454131	0	0
0	0	0	0.838458	8.260312	-4.233787	8.260312	18136	2.533506E-12	3.947099E+11	11.286209	0.451235	0	0
0	0	0	0.783557	8.260498	-4.297908	8.260498	17091	2.542246E-12	3.93353E+11	11.248635	0.449131	0	0
0	0	0	0.732609	8.260789	-4.357485	8.260789	16175	2.676766E-12	3.735851E+11	11.24656	0.44638	0	0
0	0	0	0.684577	8.260816	-4.4135	8.260816	15356	2.56833E-12	3.893581E+11	11.252501	0.444125	0	0
0	0	0	0.638154	8.261034	-4.467758	8.261034	14604	2.670353E-12	3.744823E+11	11.210338	0.441664	0	0
0	0	0	0.594418	8.261371	-4.518957	8.261371	13930	2.974828E-12	3.361538E+11	11.250656	0.439158	0	0
0	0	0	0.55279	8.261193	-4.567381	8.261193	13317	2.612696E-12	3.827464E+11	11.189972	0.436961	0	0
0	0	0	0.513431	8.261507	-4.613463	8.261507	12762	2.924484E-12	3.419406E+11	11.234481	0.434382	0	0
0	0	0	0.475747	8.261607	-4.65746	8.261607	12253	2.966773E-12	3.370665E+11	11.17804	0.432364	0	0
0	0	0	0.440505	8.261847	-4.698698	8.261847	11794	3.30651E-12	3.024337E+11	11.20029	0.429811	0	0
0	0	0	0.405598	8.26187	-4.73941	8.26187	11358	3.232422E-12	3.093655E+11	11.177842	0.427793	0	0
0	0	0	0.373394	8.262138	-4.777123	8.262138	10969	3.799649E-12	2.631822E+11	11.162836	0.42526	0	0
0	0	0	0.343216	8.261993	-4.812217	8.261993	10617	3.290181E-12	3.039347E+11	11.17895	0.423024	0	0
0	0	0	0.315145	8.262211	-4.845081	8.262211	10300	3.791182E-12	2.6377E+11	11.132202	0.420741	0	0
0	0	0	0.287507	8.262147	-4.877264	8.262147	9996	3.488282E-12	2.86674E+11	11.169727	0.418387	0	0
0	0	0	0.262196	8.262333	-4.90689	8.262333	9727	4.002993E-12	2.498131E+11	11.109357	0.416289	0	0
0	0	0	0.237825	8.262374	-4.93533	8.262374	9474	4.058607E-12	2.4639E+11	11.140696	0.413881	0	0
0	0	0	0.214842	8.262433	-4.962163	8.262433	9241	4.207796E-12	2.376541E+11	11.107263	0.411758	0	0
0	0	0	0.19373	8.262601	-4.986883	8.262601	9032	5.00942E-12	1.996239E+11	11.10585	0.40933	0	0
0	0	0	0.173058	8.26257	-5.010964	8.26257	8833	4.70495E-12	2.125421E+11	11.107007	0.407226	0	0
0	0	0	0.153702	8.262765	-5.033655	8.262765	8650	6.08953E-12	1.642163E+11	11.066073	0.405003	0	0
0	0	0	0.135766	8.262751	-5.054557	8.262751	8484	5.841573E-12	1.711868E+11	11.098571	0.40282	0	0
0	0	0	0.11828	8.262642	-5.074876	8.262642	8325	4.87592E-12	2.050895E+11	11.041561	0.400663	0	0
0	0	0	0.102362	8.262924	-5.093612	8.262924	8183	7.804005E-12	1.281393E+11	11.081934	0.398354	0	0
