Vload_(V)	ILoad_(A)	RsLoad (ohm)	SunsVoc_Voltage_(V)	SunsVoc_Current_(A)	Model_Voltage_(V)	Model_Current_(A)	Carrier_Density_(cm-3)	Lifetime_(s)	Inverse_Lifetime_(s-1)	Efficiency_(%)	Intensity_(suns)	Dark_IV_Voltage_(V)	Dark_IV_Current_(A)
2.092447	4.996184	0	43.630999	-0.694793	44.004313	-0.694793	1.033815E+14	1.364294E-5	73297.986099	11.914856	1.10122	0	0
2.096333	4.998469	-0.487663	43.500877	-0.343073	43.685794	-0.343073	9.641309E+13	1.356147E-5	73738.285068	12.002265	1.10027	0	0
2.733441	4.99426	1.095932	43.347723	0.022644	43.335473	0.022644	8.880637E+13	1.341004E-5	74570.963776	11.904818	1.099993	0	0
6.371055	4.976014	3.098692	43.184981	0.382766	42.97709	0.382766	8.137578E+13	1.32472E-5	75487.64945	11.994903	1.098608	0	0
10.271665	4.937721	3.518557	43.017274	0.721941	42.623585	0.721941	7.436456E+13	1.306647E-5	76531.733729	11.902012	1.098212	0	0
13.903633	4.927474	2.939825	42.853617	1.016971	42.296868	1.016971	6.810233E+13	1.285335E-5	77800.70984	11.99406	1.096866	0	0
17.525039	4.8784	2.706413	42.696004	1.278705	41.993333	1.278705	6.256791E+13	1.264023E-5	79112.509209	11.904383	1.096589	0	0
21.115751	4.747942	2.665317	42.533818	1.529847	41.689899	1.529847	5.73399E+13	1.242332E-5	80493.74392	11.985638	1.095402	0	0
24.698033	4.601276	2.361559	42.369654	1.761971	41.393909	1.761971	5.249103E+13	1.2189E-5	82041.164289	11.909316	1.094769	0	0
28.30229	4.523474	1.756097	42.199709	1.977857	41.100019	1.977857	4.790124E+13	1.191879E-5	83901.147423	12.002444	1.093582	0	0
29.387032	4.510572	1.544168	42.028767	2.17481	40.814714	2.17481	4.368792E+13	1.162927E-5	85989.919865	11.928902	1.093067	0	0
30.459433	4.501062	1.324008	41.85281	2.358765	40.530646	2.358765	3.97365E+13	1.13152E-5	88376.692801	12.008043	1.092473	0	0
31.544005	4.492182	1.100705	41.675171	2.529863	40.25123	2.529863	3.610869E+13	1.099547E-5	90946.55096	11.933342	1.092553	0	0
32.634846	4.484755	0.872105	41.496307	2.687939	39.977112	2.687939	3.278954E+13	1.066854E-5	93733.504889	12.003728	1.092038	0	0
33.701044	4.468475	0.661777	41.316855	2.833653	39.70866	2.833653	2.976533E+13	1.033713E-5	96738.606452	11.940806	1.091247	0	0
34.769908	4.346132	0.609036	41.137696	2.967579	39.446549	2.967579	2.702373E+13	1.000459E-5	99954.072642	12.000562	1.091247	0	0
35.823534	4.150753	0.606415	40.958522	3.092588	39.188896	3.092588	2.453394E+13	9.679307E-6	103313.178009	11.937889	1.090495	0	0
36.867087	3.901734	0.602567	40.775557	3.210665	38.930692	3.210665	2.222763E+13	9.349327E-6	106959.57325	11.986294	1.090257	0	0
37.895511	3.589983	0.591928	40.585978	3.323093	38.668281	3.323093	2.0066E+13	9.007265E-6	111021.495858	11.94014	1.089228	0	0
38.918823	3.19018	0.580083	40.394846	3.426643	38.408836	3.426643	1.809912E+13	8.660374E-6	115468.451964	11.967254	1.089109	0	0
39.918453	2.688407	0.570329	40.202114	3.523141	38.151306	3.523141	1.631068E+13	8.31588E-6	120251.850184	11.929326	1.087645	0	0
40.87738	2.094893	0.562892	40.008957	3.61295	37.896754	3.61295	1.469538E+13	7.978787E-6	125332.338128	11.964386	1.087131	0	0
41.787852	1.411049	0.604326	39.816012	3.695316	37.646342	3.695316	1.32414E+13	7.644559E-6	130811.987379	11.944825	1.085389	0	0
42.617276	0.694744	0.693303	39.62426	3.770782	37.400835	3.770782	1.193883E+13	7.317026E-6	136667.546676	11.960848	1.085073	0	0
34.061498	4.441458	0.626008	39.431119	3.841021	37.156587	3.841021	1.075621E+13	6.993069E-6	142998.727974	11.950966	1.083094	0	0
43.399289	0	0	39.237014	3.90669	36.913689	3.90669	9.685602E+12	6.676572E-6	149777.454547	11.957519	1.082421	0	0
0	0	0	39.040819	3.967683	36.671051	3.967683	8.711637E+12	6.361314E-6	157200.222194	11.96224	1.080403	0	0
0	0	0	38.846306	4.024781	36.432209	4.024781	7.842675E+12	6.063406E-6	164923.806139	11.956544	1.079769	0	0
0	0	0	38.653541	4.078342	36.197047	4.078342	7.067012E+12	5.782552E-6	172934.024196	11.975628	1.077553	0	0
0	0	0	38.45844	4.128579	35.961164	4.128579	6.359992E+12	5.50537E-6	181640.847553	11.958473	1.076959	0	0
0	0	0	38.264989	4.175577	35.728733	4.175577	5.728778E+12	5.242982E-6	190731.16377	11.989816	1.074743	0	0
0	0	0	38.073972	4.219427	35.500552	4.219427	5.166976E+12	4.995779E-6	200169.001623	11.950788	1.074268	0	0
0	0	0	37.885274	4.260395	35.276366	4.260395	4.666092E+12	4.762684E-6	209965.626055	11.997158	1.071933	0	0
0	0	0	37.694126	4.299447	35.050568	4.299447	4.208171E+12	4.536031E-6	220457.061378	11.951355	1.071656	0	0
0	0	0	37.500071	4.336399	34.822799	4.336399	3.789217E+12	4.31319E-6	231846.95885	12.009858	1.069519	0	0
0	0	0	37.305476	4.37236	34.594888	4.37236	3.410968E+12	4.106456E-6	243518.965374	11.95591	1.0694	0	0
0	0	0	37.10835	4.405219	34.366046	4.405219	3.066269E+12	3.896728E-6	256625.559057	12.016117	1.06754	0	0
0	0	0	36.910962	4.435908	34.138116	4.435908	2.756007E+12	3.694283E-6	270688.488329	11.952348	1.067224	0	0
0	0	0	36.710928	4.464722	33.908403	4.464722	2.473592E+12	3.495489E-6	286082.995638	12.0271	1.065284	0	0
0	0	0	36.510355	4.492201	33.678811	4.492201	2.219465E+12	3.307382E-6	302353.990477	11.948036	1.064889	0	0
0	0	0	36.310174	4.517993	33.450558	4.517993	1.991864E+12	3.128311E-6	319661.332747	12.025439	1.062831	0	0
0	0	0	36.11081	4.542059	33.224132	4.542059	1.788389E+12	2.957592E-6	338112.899858	11.942221	1.062554	0	0
0	0	0	35.914664	4.565157	33.001608	4.565157	1.608492E+12	2.802635E-6	356807.107664	12.033144	1.060298	0	0
0	0	0	35.717799	4.586463	32.779352	4.586463	1.446127E+12	2.650757E-6	377250.744204	11.935328	1.059546	0	0
0	0	0	35.522714	4.606858	32.55946	4.606858	1.301402E+12	2.51044E-6	398336.581518	12.027926	1.057369	0	0
0	0	0	35.328038	4.626145	32.340613	4.626145	1.171417E+12	2.377478E-6	420613.690885	11.93488	1.056301	0	0
0	0	0	35.133574	4.644276	32.122642	4.644276	1.054536E+12	2.250527E-6	444340.411943	12.028747	1.054203	0	0
0	0	0	34.944779	4.661134	31.911421	4.661134	9.522288E+11	2.134436E-6	468507.832731	11.93429	1.052976	0	0
0	0	0	34.755983	4.677533	31.700417	4.677533	8.598463E+11	2.02655E-6	493449.450747	12.041344	1.050602	0	0
0	0	0	34.568102	4.692765	31.491068	4.692765	7.7681E+11	1.922754E-6	520087.285231	11.946601	1.049256	0	0
0	0	0	34.382312	4.707214	31.284378	4.707214	7.025858E+11	1.825992E-6	547647.428044	12.048439	1.047079	0	0
0	0	0	34.198171	4.720745	31.079977	4.720745	6.360203E+11	1.734192E-6	576637.536147	11.955769	1.045496	0	0
0	0	0	34.01279	4.733665	30.874598	4.733665	5.753749E+11	1.646045E-6	607516.952917	12.053243	1.043399	0	0
0	0	0	33.826068	4.745749	30.668289	4.745749	5.201351E+11	1.559815E-6	641101.638904	11.956812	1.042251	0	0
0	0	0	33.638481	4.757371	30.461311	4.757371	4.699786E+11	1.477991E-6	676594.262086	12.051213	1.040193	0	0
0	0	0	33.451172	4.768393	30.254972	4.768393	4.247222E+11	1.400297E-6	714134.086637	11.969328	1.038452	0	0
0	0	0	33.263667	4.778739	30.048827	4.778739	3.837829E+11	1.325524E-6	754418.560778	12.054133	1.036591	0	0
0	0	0	33.077174	4.788771	29.843919	4.788771	3.469796E+11	1.256375E-6	795940.95784	11.970054	1.035167	0	0
0	0	0	32.889032	4.798324	29.637533	4.798324	3.134259E+11	1.189677E-6	840564.45585	12.041403	1.033742	0	0
0	0	0	32.702458	4.807053	29.433327	4.807053	2.833569E+11	1.125181E-6	888746.057831	11.96412	1.031842	0	0
0	0	0	32.516945	4.815484	29.230411	4.815484	2.563196E+11	1.065309E-6	938695.17693	12.038348	1.030418	0	0
0	0	0	32.332184	4.82348	29.02855	4.82348	2.319564E+11	1.008688E-6	991387.285332	11.981091	1.028122	0	0
0	0	0	32.148436	4.831246	28.827886	4.831246	2.100237E+11	9.563095E-7	1045686.554586	12.039065	1.026974	0	0
0	0	0	31.963806	4.83822	28.626793	4.83822	1.900742E+11	9.036834E-7	1106582.245072	11.988296	1.024441	0	0
0	0	0	31.778457	4.845397	28.424761	4.845397	1.719529E+11	8.564399E-7	1167624.218088	12.031552	1.023373	0	0
0	0	0	31.589122	4.851975	28.218873	4.851975	1.552243E+11	8.083871E-7	1237031.128616	11.987718	1.021275	0	0
0	0	0	31.401404	4.858289	28.014855	4.858289	1.402457E+11	7.638243E-7	1309201.609806	12.023898	1.019653	0	0
0	0	0	31.215336	4.864378	27.812719	4.864378	1.268256E+11	7.226409E-7	1383813.17543	11.995885	1.017199	0	0
0	0	0	31.028697	4.869994	27.610277	4.869994	1.146542E+11	6.823631E-7	1465495.413756	12.027431	1.015576	0	0
0	0	0	30.841404	4.875384	27.407272	4.875384	1.036142E+11	6.441765E-7	1552369.639099	12.002918	1.013162	0	0
0	0	0	30.654536	4.880653	27.204777	4.880653	9.36588E+10	6.088413E-7	1642464.136719	12.019262	1.011817	0	0
0	0	0	30.467847	4.885434	27.002795	4.885434	8.466812E+10	5.741534E-7	1741694.748942	12.010704	1.009363	0	0
0	0	0	30.281404	4.890373	26.800937	4.890373	7.655063E+10	5.433401E-7	1840467.862954	12.012357	1.007899	0	0
0	0	0	30.09416	4.894884	26.598509	4.894884	6.918145E+10	5.129014E-7	1949692.488432	12.022631	1.005089	0	0
0	0	0	29.907046	4.89923	26.396317	4.89923	6.252608E+10	4.843387E-7	2064671.010725	12.015275	1.003703	0	0
0	0	0	29.720031	4.903428	26.194314	4.903428	5.651396E+10	4.575781E-7	2185419.237787	12.029152	1.00121	0	0
0	0	0	29.533179	4.907329	25.992679	4.907329	5.108444E+10	4.317748E-7	2316021.970822	12.012082	0.999983	0	0
0	0	0	29.346654	4.911295	25.791324	4.911295	4.61847E+10	4.086021E-7	2447368.88673	12.037504	0.997411	0	0
0	0	0	29.157679	4.914581	25.587838	4.914581	4.169965E+10	3.837758E-7	2605687.99031	12.001904	0.99654	0	0
0	0	0	28.967821	4.918284	25.383092	4.918284	3.76322E+10	3.628043E-7	2756306.687736	12.043015	0.993809	0	0
0	0	0	28.779091	4.921459	25.179914	4.921459	3.39822E+10	3.415373E-7	2927937.658414	11.994511	0.992978	0	0
0	0	0	28.591226	4.924623	24.977649	4.924623	3.070057E+10	3.221994E-7	3103668.482902	12.049847	0.990247	0	0
0	0	0	28.402022	4.927634	24.774056	4.927634	2.771577E+10	3.036483E-7	3293283.452951	11.988955	0.989416	0	0
0	0	0	28.210956	4.930337	24.568694	4.930337	2.499599E+10	2.850919E-7	3507640.871953	12.054746	0.986448	0	0
0	0	0	28.017962	4.932974	24.361315	4.932974	2.251963E+10	2.675627E-7	3737442.397038	11.981132	0.985498	0	0
0	0	0	27.818582	4.935792	24.146989	4.935792	2.021867E+10	2.514343E-7	3977182.326558	12.050318	0.982807	0	0
0	0	0	27.617584	4.938176	23.931251	4.938176	1.813695E+10	2.348169E-7	4258637.427301	11.971403	0.981857	0	0
0	0	0	27.420425	4.940555	23.719592	4.940555	1.630337E+10	2.201031E-7	4543324.73997	12.055655	0.979008	0	0
0	0	0	27.220816	4.942884	23.505349	4.942884	1.463575E+10	2.062241E-7	4849094.248214	11.968581	0.978137	0	0
0	0	0	27.019083	4.944927	23.289048	4.944927	1.312363E+10	1.922902E-7	5200473.848085	12.06103	0.97505	0	0
0	0	0	26.816141	4.947224	23.071259	4.947224	1.176006E+10	1.803919E-7	5543486.868329	11.972941	0.974179	0	0
0	0	0	26.611599	4.948932	22.852199	4.948932	1.052905E+10	1.673484E-7	5975556.252082	12.056162	0.971607	0	0
0	0	0	26.403087	4.950904	22.628704	4.950904	9.406686E+9	1.560213E-7	6409382.773779	11.96258	0.970261	0	0
0	0	0	26.191685	4.952931	22.402077	4.952931	8.390842E+9	1.456943E-7	6863685.611914	12.054208	0.967847	0	0
0	0	0	25.977472	4.954711	22.172637	4.954711	7.473341E+9	1.35332E-7	7389236.093198	11.96412	0.966462	0	0
0	0	0	25.762492	4.956342	21.942485	4.956342	6.653403E+9	1.254177E-7	7973356.446557	12.066117	0.96381	0	0
0	0	0	25.545192	4.957781	21.710002	4.957781	5.916001E+9	1.156969E-7	8643272.305288	11.96345	0.962465	0	0
0	0	0	25.322584	4.959479	21.471658	4.959479	5.245252E+9	1.073229E-7	9317674.266228	12.057783	0.96013	0	0
0	0	0	25.097313	4.961088	21.230538	4.961088	4.643863E+9	9.937535E-8	1.006286E+7	11.953597	0.958903	0	0
0	0	0	24.86969	4.962516	20.987045	4.962516	4.106201E+9	9.159723E-8	1.091736E+7	12.051867	0.956449	0	0
0	0	0	24.639012	4.96378	20.74042	4.96378	3.624799E+9	8.401115E-8	1.190318E+7	11.956065	0.955024	0	0
0	0	0	24.405002	4.965038	20.490244	4.965038	3.194076E+9	7.701817E-8	1.298395E+7	12.050551	0.953006	0	0
0	0	0	24.164132	4.966263	20.232781	4.966263	2.804116E+9	7.038322E-8	1.420793E+7	11.958935	0.951106	0	0
0	0	0	23.919243	4.967433	19.971074	4.967433	2.456424E+9	6.41652E-8	1.558477E+7	12.052043	0.949246	0	0
0	0	0	23.673929	4.968669	19.708855	4.968669	2.151349E+9	5.872038E-8	1.702986E+7	11.950104	0.947861	0	0
0	0	0	23.426933	4.969822	19.444903	4.969822	1.88245E+9	5.362913E-8	1.864658E+7	12.040356	0.945724	0	0
0	0	0	23.17814	4.970888	19.1791	4.970888	1.645562E+9	4.885529E-8	2.046861E+7	11.950818	0.944101	0	0
0	0	0	22.925738	4.971931	18.909463	4.971931	1.43568E+9	4.445827E-8	2.2493E+7	12.043057	0.942083	0	0
0	0	0	22.6701	4.972827	18.636496	4.972827	1.250379E+9	4.020434E-8	2.487294E+7	11.959013	0.940341	0	0
0	0	0	22.410396	4.973738	18.359178	4.973738	1.086602E+9	3.635763E-8	2.750454E+7	12.031003	0.938679	0	0
0	0	0	22.149238	4.974897	18.080103	4.974897	9.435357E+8	3.328954E-8	3.003946E+7	11.955812	0.936859	0	0
0	0	0	21.887034	4.975716	17.800186	4.975716	8.188431E+8	3.004536E-8	3.328301E+7	12.023907	0.935117	0	0
0	0	0	21.622381	4.976748	17.517478	4.976748	7.096885E+8	2.742377E-8	3.646472E+7	11.949827	0.933336	0	0
0	0	0	21.354101	4.977704	17.230964	4.977704	6.1388E+8	2.494837E-8	4.008277E+7	12.009194	0.931714	0	0
0	0	0	21.085706	4.978264	16.944651	4.978264	5.30973E+8	2.225368E-8	4.49364E+7	11.957306	0.929497	0	0
0	0	0	20.817638	4.97888	16.658636	4.97888	4.59344E+8	1.993604E-8	5.016041E+7	12.011247	0.927914	0	0
0	0	0	20.547447	4.979676	16.370203	4.979676	3.969219E+8	1.805799E-8	5.537715E+7	11.95955	0.925856	0	0
0	0	0	20.269611	4.98039	16.073691	4.98039	3.415682E+8	1.624223E-8	6.15679E+7	11.999186	0.924432	0	0
0	0	0	19.993458	4.981126	15.778948	4.981126	2.942014E+8	1.467367E-8	6.814929E+7	11.961383	0.922295	0	0
0	0	0	19.718187	4.98167	15.485302	4.98167	2.53524E+8	1.311858E-8	7.622776E+7	11.983648	0.921186	0	0
0	0	0	19.441576	4.982324	15.190132	4.982324	2.183127E+8	1.18293E-8	8.453586E+7	11.968769	0.918535	0	0
0	0	0	19.166844	4.982944	14.896986	4.982944	1.881829E+8	1.067472E-8	9.367923E+7	11.981521	0.917506	0	0
0	0	0	18.892079	4.983362	14.603976	4.983362	1.622084E+8	9.500877E-9	1.052534E+8	11.977655	0.915013	0	0
0	0	0	18.61421	4.983883	14.307568	4.983883	1.395848E+8	8.522591E-9	1.173352E+8	11.97458	0.914023	0	0
0	0	0	18.336669	4.984565	14.011365	4.984565	1.201377E+8	7.765182E-9	1.2878E+8	11.976774	0.911332	0	0
0	0	0	18.058621	4.984746	13.715053	4.984746	1.033717E+8	6.787384E-9	1.473322E+8	11.955526	0.910778	0	0
0	0	0	17.778612	4.985471	13.416176	4.985471	8.885137E+7	6.228801E-9	1.605445E+8	11.973928	0.908047	0	0
0	0	0	17.497918	4.985877	13.116844	4.985877	7.634232E+7	5.562929E-9	1.797614E+8	11.946069	0.907216	0	0
0	0	0	17.215998	4.986525	12.81599	4.986525	6.555095E+7	5.09711E-9	1.961896E+8	11.981878	0.904643	0	0
0	0	0	16.932396	4.9868	12.51367	4.9868	5.623382E+7	4.5006E-9	2.221926E+8	11.942716	0.903694	0	0
0	0	0	16.645054	4.98725	12.207207	4.98725	4.814354E+7	4.047365E-9	2.470743E+8	11.981701	0.901121	0	0
0	0	0	16.355833	4.987563	11.898863	4.987563	4.117536E+7	3.587278E-9	2.787629E+8	11.928836	0.90033	0	0
0	0	0	16.071463	4.988184	11.595408	4.988184	3.530822E+7	3.314783E-9	3.016789E+8	11.97995	0.897559	0	0
0	0	0	15.785819	4.988591	11.290785	4.988591	3.025625E+7	2.992543E-9	3.341639E+8	11.923536	0.896689	0	0
0	0	0	15.502021	4.988744	10.988353	4.988744	2.5953E+7	2.619989E-9	3.81681E+8	11.991775	0.8938	0	0
0	0	0	15.218272	4.988926	10.685947	4.988926	2.226239E+7	2.30354E-9	4.341144E+8	11.913162	0.892968	0	0
0	0	0	14.933429	4.989563	10.381958	4.989563	1.90853E+7	2.164832E-9	4.619296E+8	11.986925	0.890436	0	0
0	0	0	14.648667	4.989689	10.078519	4.989689	1.636233E+7	1.892069E-9	5.28522E+8	11.904231	0.889327	0	0
0	0	0	14.366209	4.9902	9.777179	4.9902	1.404534E+7	1.762784E-9	5.672844E+8	11.985195	0.886874	0	0
0	0	0	14.081676	4.990436	9.473879	4.990436	1.204294E+7	1.573577E-9	6.354949E+8	11.891763	0.885805	0	0
0	0	0	13.796359	4.990557	9.169849	4.990557	1.032163E+7	1.377627E-9	7.258861E+8	11.980489	0.883312	0	0
0	0	0	13.512316	4.990832	8.867032	4.990832	8852447	1.24216E-9	8.050492E+8	11.891532	0.882164	0	0
0	0	0	13.228714	4.991013	8.564771	4.991013	7594199	1.102957E-9	9.06654E+8	11.983111	0.879789	0	0
0	0	0	12.941976	4.991403	8.258971	4.991403	6503757	1.02163E-9	9.788276E+8	11.880565	0.878602	0	0
0	0	0	12.652134	4.991655	7.949992	4.991655	5560553	9.222034E-10	1.084359E+9	11.981356	0.876188	0	0
0	0	0	12.367487	4.991848	7.646601	4.991848	4767505	8.257325E-10	1.211046E+9	11.87731	0.875278	0	0
0	0	0	12.083672	4.991963	7.344169	4.991963	4089403	7.276408E-10	1.374305E+9	11.974936	0.873061	0	0
0	0	0	11.802063	4.992161	7.044007	4.992161	3511934	6.556028E-10	1.525314E+9	11.878164	0.871716	0	0
0	0	0	11.521793	4.99243	6.745202	4.99243	3018195	6.038271E-10	1.656103E+9	11.973352	0.869856	0	0
0	0	0	11.240821	4.992628	6.445715	4.992628	2592886	5.475816E-10	1.826212E+9	11.872367	0.868589	0	0
0	0	0	10.961842	4.992672	6.148498	4.992672	2229910	4.768177E-10	2.097238E+9	11.96047	0.866808	0	0
0	0	0	10.685836	4.992985	5.854186	4.992985	1920830	4.509218E-10	2.217679E+9	11.86152	0.865463	0	0
0	0	0	10.410271	4.993133	5.560503	4.993133	1654987	4.073993E-10	2.454595E+9	11.944944	0.863563	0	0
0	0	0	10.137613	4.993369	5.26983	4.993369	1428178	3.810665E-10	2.624214E+9	11.865903	0.861861	0	0
0	0	0	9.866131	4.993451	4.980558	4.993451	1233237	3.389743E-10	2.950076E+9	11.942147	0.860357	0	0
0	0	0	9.597753	4.993517	4.694609	4.993517	1066693	3.004446E-10	3.3284E+9	11.864611	0.858695	0	0
0	0	0	9.330829	4.993671	4.41012	4.993671	923365	2.759934E-10	3.623275E+9	11.934316	0.856954	0	0
0	0	0	9.062957	4.993896	4.124551	4.993896	798886	2.62295E-10	3.812502E+9	11.86	0.855212	0	0
0	0	0	8.796082	4.994012	3.840151	4.994012	691561	2.391148E-10	4.182092E+9	11.921175	0.853629	0	0
0	0	0	8.53788	4.994127	3.564989	4.994127	601468	2.196269E-10	4.553176E+9	11.860525	0.851928	0	0
0	0	0	8.282652	4.994182	3.293054	4.994182	523953	1.965717E-10	5.087203E+9	11.904015	0.850622	0	0
0	0	0	8.034496	4.994352	3.028537	4.994352	458176	1.878742E-10	5.322712E+9	11.860229	0.848643	0	0
0	0	0	7.789248	4.994396	2.767244	4.994396	401287	1.685916E-10	5.931493E+9	11.905447	0.847297	0	0
0	0	0	7.547707	4.994462	2.509878	4.994462	352167	1.53619E-10	6.50961E+9	11.86099	0.845358	0	0
0	0	0	7.308699	4.994605	2.255131	4.994605	309483	1.472102E-10	6.793008E+9	11.882551	0.84421	0	0
0	0	0	7.075163	4.994885	2.006072	4.994885	272778	1.577358E-10	6.339717E+9	11.859577	0.842231	0	0
0	0	0	6.847834	4.994945	1.763848	4.994945	241234	1.463011E-10	6.83522E+9	11.873637	0.841044	0	0
0	0	0	6.624572	4.995072	1.525889	4.995072	213808	1.443987E-10	6.925271E+9	11.864866	0.838788	0	0
0	0	0	6.405263	4.994951	1.292393	4.994951	189905	1.156847E-10	8.644185E+9	11.866941	0.83768	0	0
0	0	0	6.191949	4.99522	1.064884	4.99522	169222	1.318734E-10	7.583031E+9	11.864831	0.835701	0	0
0	0	0	5.985561	4.995121	0.845129	4.995121	151357	1.069769E-10	9.347817E+9	11.847692	0.834989	0	0
0	0	0	5.783795	4.99533	0.629982	4.99533	135717	1.193697E-10	8.377336E+9	11.860116	0.832535	0	0
0	0	0	5.586293	4.995187	0.419739	4.995187	121974	9.191044E-11	1.088016E+10	11.829225	0.831862	0	0
0	0	0	5.393888	4.995434	0.214522	4.995434	109925	1.101462E-10	9.078841E+9	11.864376	0.829329	0	0
0	0	0	5.204847	4.995654	0.012916	4.995654	99246	1.406838E-10	7.108136E+9	11.821436	0.828775	0	0
0	0	0	5.021148	4.99544	-0.182548	4.99544	89864	9.070958E-11	1.102419E+10	11.863772	0.826203	0	0
0	0	0	4.848115	4.995517	-0.366953	4.995517	81840	9.213207E-11	1.085398E+10	11.811123	0.825332	0	0
0	0	0	4.679002	4.995533	-0.547119	4.995533	74690	8.62123E-11	1.159927E+10	11.853903	0.823393	0	0
0	0	0	4.513892	4.995583	-0.723057	4.995583	68312	8.53336E-11	1.171871E+10	11.793346	0.822522	0	0
0	0	0	4.355969	4.995572	-0.891275	4.995572	62723	7.694604E-11	1.299612E+10	11.852908	0.820069	0	0
0	0	0	4.202521	4.995725	-1.054898	4.995725	57729	9.457888E-11	1.057319E+10	11.786574	0.819237	0	0
0	0	0	4.054774	4.995797	-1.212362	4.995797	53298	1.034301E-10	9.668369E+9	11.854366	0.816902	0	0
0	0	0	3.911519	4.995753	-1.36492	4.995753	49326	8.596192E-11	1.163306E+10	11.775173	0.81615	0	0
0	0	0	3.772152	4.995929	-1.513569	4.995929	45747	1.346362E-10	7.427422E+9	11.846531	0.813815	0	0
0	0	0	3.635529	4.995852	-1.659027	4.995852	42490	9.609418E-11	1.040646E+10	11.759128	0.813024	0	0
0	0	0	3.505048	4.995835	-1.798006	4.995835	39596	8.531585E-11	1.172115E+10	11.842592	0.81057	0	0
0	0	0	3.378602	4.995835	-1.932705	4.995835	36980	7.967927E-11	1.255032E+10	11.752009	0.809858	0	0
