Vload_(V)	ILoad_(A)	RsLoad (ohm)	SunsVoc_Voltage_(V)	SunsVoc_Current_(A)	Model_Voltage_(V)	Model_Current_(A)	Carrier_Density_(cm-3)	Lifetime_(s)	Inverse_Lifetime_(s-1)	Efficiency_(%)	Intensity_(suns)	Dark_IV_Voltage_(V)	Dark_IV_Current_(A)
2.233409	2.359386	0	23.953158	-0.218731	24.430533	-0.218731	3.189732E+13	1.578676E-6	633442.185401	6.233019	1.097695	0	0
9.352504	2.120165	4.925681	23.925038	-0.137555	24.22775	-0.137555	3.107935E+13	1.5882E-6	629643.522968	6.224825	1.095994	0	0
10.440652	2.070539	4.720646	23.852283	0.009925	23.829975	0.009925	2.905879E+13	1.578159E-6	633649.659477	6.237089	1.093019	0	0
11.551285	2.014678	4.489166	23.761887	0.171473	23.366421	0.171473	2.672985E+13	1.558863E-6	641493.179221	6.253778	1.091053	0	0
12.669884	1.951077	4.240923	23.668004	0.322281	22.905144	0.322281	2.450796E+13	1.535095E-6	651425.414558	6.247584	1.089754	0	0
13.808236	1.87463	3.987839	23.572201	0.462179	22.449532	0.462179	2.243052E+13	1.508572E-6	662878.503953	6.267094	1.08914	0	0
14.936264	1.785229	3.735423	23.474978	0.589389	22.006212	0.589389	2.050185E+13	1.477957E-6	676609.482208	6.244616	1.087636	0	0
16.075219	1.674336	3.494571	23.376284	0.707595	21.567737	0.707595	1.871325E+13	1.445558E-6	691774.15023	6.275017	1.085156	0	0
16.635508	1.610343	3.385699	23.275875	0.816076	21.13702	0.816076	1.705334E+13	1.40993E-6	709254.920514	6.251957	1.081766	0	0
17.187985	1.539567	3.286466	23.17491	0.916252	20.713617	0.916252	1.553246E+13	1.373331E-6	728156.54485	6.294215	1.077373	0	0
17.751397	1.458957	3.187349	23.073717	1.009616	20.295488	1.009616	1.414404E+13	1.337073E-6	747902.15738	6.262891	1.073151	0	0
18.31123	1.369687	3.103542	22.97009	1.09787	19.875361	1.09787	1.285058E+13	1.299785E-6	769357.939541	6.306936	1.068904	0	0
18.861066	1.272825	3.022917	22.864846	1.180035	19.458112	1.180035	1.165782E+13	1.261292E-6	792837.906781	6.274018	1.066074	0	0
19.396813	1.168623	2.961321	22.757528	1.256973	19.041351	1.256973	1.055535E+13	1.221715E-6	818521.198228	6.316672	1.06238	0	0
19.94493	1.051135	2.911006	22.651083	1.328176	18.63288	1.328176	9.564786E+12	1.183504E-6	844948.836871	6.28494	1.058785	0	0
20.479147	0.927686	2.883555	22.544173	1.393351	18.232362	1.393351	8.663363E+12	1.144288E-6	873906.021025	6.31965	1.053508	0	0
21.012001	0.795034	2.878195	22.43576	1.453939	17.834421	1.453939	7.835916E+12	1.104252E-6	905590.78839	6.300862	1.048634	0	0
21.518151	0.662341	2.888667	22.328319	1.509723	17.445433	1.509723	7.093826E+12	1.065309E-6	938695.135012	6.325745	1.043113	0	0
22.026797	0.524635	2.906659	22.219318	1.562183	17.056534	1.562183	6.412699E+12	1.026392E-6	974286.550276	6.322436	1.038357	0	0
22.541207	0.380982	2.936737	22.111444	1.610416	16.6768	1.610416	5.802989E+12	9.886184E-7	1011512.59833	6.328233	1.033206	0	0
23.017428	0.245742	2.96476	22.002279	1.655336	16.299068	1.655336	5.244946E+12	9.505591E-7	1052012.44937	6.33809	1.028595	0	0
23.491545	0.110881	2.928129	21.891588	1.69732	15.922107	1.69732	4.733841E+12	9.123334E-7	1096090.560558	6.327751	1.023621	0	0
15.177111	1.770419	3.659242	21.782219	1.735992	15.553823	1.735992	4.277759E+12	8.755784E-7	1142102.164807	6.353985	1.01814	0	0
23.85237	0	0	21.672508	1.772104	15.188692	1.772104	3.864374E+12	8.396031E-7	1191038.890002	6.333902	1.012322	0	0
0	0	0	21.560705	1.806045	14.821995	1.806045	3.484168E+12	8.034295E-7	1244664.221507	6.3687	1.006241	0	0
0	0	0	21.447441	1.837861	14.455266	1.837861	3.137106E+12	7.675304E-7	1302879.988852	6.34232	1.000634	0	0
0	0	0	21.331971	1.867673	14.086774	1.867673	2.818841E+12	7.31476E-7	1367098.799779	6.385073	0.995014	0	0
0	0	0	21.216592	1.895873	13.720397	1.895873	2.533068E+12	6.973098E-7	1434082.798654	6.351967	0.989632	0	0
0	0	0	21.100338	1.922589	13.353822	1.922589	2.274417E+12	6.644035E-7	1505109.367294	6.398641	0.983821	0	0
0	0	0	20.983325	1.947281	12.989821	1.947281	2.040735E+12	6.318582E-7	1582633.620387	6.356662	0.978451	0	0
0	0	0	20.866279	1.970479	12.62825	1.970479	1.831002E+12	6.007362E-7	1664624.105525	6.404861	0.972344	0	0
0	0	0	20.748931	1.992055	12.269375	1.992055	1.642361E+12	5.704947E-7	1752864.809554	6.368921	0.966737	0	0
0	0	0	20.631877	2.012019	11.914882	2.012019	1.473553E+12	5.41275E-7	1847489.765837	6.416088	0.960537	0	0
0	0	0	20.514986	2.03067	11.563531	2.03067	1.322294E+12	5.132722E-7	1948284.157405	6.381922	0.955167	0	0
0	0	0	20.398047	2.048211	11.214218	2.048211	1.186506E+12	4.865264E-7	2055387.022529	6.422231	0.94935	0	0
0	0	0	20.280723	2.064686	10.866214	2.064686	1.064282E+12	4.608057E-7	2170111.88926	6.391879	0.944323	0	0
0	0	0	20.161472	2.08017	10.515779	2.08017	9.52944E+11	4.3548E-7	2296316.905247	6.428139	0.938479	0	0
0	0	0	20.041372	2.094681	10.165541	2.094681	8.525809E+11	4.109739E-7	2433244.498349	6.409164	0.933308	0	0
0	0	0	19.92177	2.108438	9.817837	2.108438	7.631395E+11	3.880258E-7	2577148.359383	6.432499	0.927517	0	0
0	0	0	19.801735	2.12138	9.470943	2.12138	6.828064E+11	3.660584E-7	2731804.753223	6.423986	0.92222	0	0
0	0	0	19.680262	2.133559	9.122389	2.133559	6.10116E+11	3.447291E-7	2900828.557532	6.437722	0.916699	0	0
0	0	0	19.557834	2.144949	8.773609	2.144949	5.446812E+11	3.241027E-7	3085441.498043	6.436789	0.911462	0	0
0	0	0	19.433936	2.155634	8.4231	2.155634	4.856019E+11	3.041012E-7	3288378.537564	6.441548	0.906132	0	0
0	0	0	19.312022	2.165724	8.078727	2.165724	4.337273E+11	2.857678E-7	3499344.821814	6.449188	0.900934	0	0
0	0	0	19.189169	2.175191	7.733786	2.175191	3.870571E+11	2.681247E-7	3729607.364332	6.447174	0.895479	0	0
0	0	0	19.066112	2.184143	7.389593	2.184143	3.453431E+11	2.5145E-7	3976934.200724	6.458423	0.890216	0	0
0	0	0	18.942868	2.192668	7.045841	2.192668	3.08071E+11	2.35781E-7	4241223.7458	6.452027	0.884583	0	0
0	0	0	18.819239	2.200785	6.702042	2.200785	2.747237E+11	2.210199E-7	4524478.664154	6.473061	0.879365	0	0
0	0	0	18.693544	2.208611	6.353553	2.208611	2.445174E+11	2.069283E-7	4832592.69778	6.457698	0.874049	0	0
0	0	0	18.567057	2.21593	6.004731	2.21593	2.174725E+11	1.934311E-7	5169799.722998	6.478124	0.869016	0	0
0	0	0	18.441411	2.222806	5.659312	2.222806	1.935697E+11	1.808382E-7	5529805.056196	6.463246	0.86362	0	0
0	0	0	18.315266	2.229155	5.31463	2.229155	1.722146E+11	1.687313E-7	5926582.129073	6.487061	0.858522	0	0
0	0	0	18.187595	2.23515	4.967267	2.23515	1.529986E+11	1.571376E-7	6363848.552659	6.472624	0.853245	0	0
0	0	0	18.059392	2.240822	4.61955	2.240822	1.3586E+11	1.462105E-7	6839455.395411	6.499166	0.848284	0	0
0	0	0	17.931239	2.246254	4.272472	2.246254	1.206466E+11	1.360721E-7	7349043.112586	6.476367	0.843139	0	0
0	0	0	17.800823	2.251353	3.920987	2.251353	1.069124E+11	1.262727E-7	7919365.529281	6.506319	0.838001	0	0
0	0	0	17.668619	2.25621	3.565748	2.25621	9.458474E+10	1.16972E-7	8549057.344807	6.485275	0.832968	0	0
0	0	0	17.533703	2.260888	3.204131	2.260888	8.346853E+10	1.081275E-7	9248340.408275	6.514167	0.827982	0	0
0	0	0	17.39873	2.265216	2.843807	2.265216	7.365486E+10	9.979993E-8	1.002005E+7	6.487944	0.822995	0	0
0	0	0	17.261388	2.269448	2.477504	2.269448	6.485251E+10	9.200798E-8	1.086862E+7	6.528166	0.817824	0	0
0	0	0	17.123206	2.273403	2.110202	2.273403	5.70576E+10	8.467216E-8	1.181026E+7	6.491279	0.813068	0	0
0	0	0	16.983536	2.277181	1.739696	2.277181	5.013049E+10	7.781155E-8	1.285156E+7	6.534086	0.808141	0	0
0	0	0	16.841025	2.28081	1.362479	2.28081	4.392851E+10	7.133402E-8	1.401856E+7	6.497429	0.803543	0	0
0	0	0	16.697035	2.284239	0.982303	2.284239	3.844112E+10	6.527183E-8	1.532055E+7	6.541853	0.798609	0	0
0	0	0	16.55133	2.287509	0.598346	2.287509	3.358577E+10	5.962176E-8	1.67724E+7	6.502587	0.794051	0	0
0	0	0	16.403542	2.290588	0.209948	2.290588	2.92871E+10	5.431752E-8	1.841027E+7	6.550864	0.789111	0	0
0	0	0	16.253321	2.29357	-0.184389	2.29357	2.548108E+10	4.939964E-8	2.024306E+7	6.507228	0.784725	0	0
0	0	0	16.101776	2.296462	-0.581946	2.296462	2.21425E+10	4.49003E-8	2.227157E+7	6.556844	0.779745	0	0
0	0	0	15.948116	2.299117	-0.983587	2.299117	1.920367E+10	4.065633E-8	2.459642E+7	6.511025	0.775444	0	0
0	0	0	15.790708	2.301659	-1.394247	2.301659	1.659713E+10	3.66853E-8	2.725888E+7	6.563689	0.770484	0	0
0	0	0	15.630947	2.304119	-1.810668	2.304119	1.431315E+10	3.304529E-8	3.026149E+7	6.520949	0.766262	0	0
0	0	0	15.471088	2.306423	-2.226638	2.306423	1.234235E+10	2.973449E-8	3.363098E+7	6.565001	0.761579	0	0
0	0	0	15.309971	2.308672	-2.645798	2.308672	1.063051E+10	2.67461E-8	3.738863E+7	6.528	0.757305	0	0
0	0	0	15.148544	2.310773	-3.065037	2.310773	9.153471E+9	2.402522E-8	4.162292E+7	6.568848	0.752635	0	0
0	0	0	14.984348	2.312828	-3.491266	2.312828	7.861457E+9	2.15451E-8	4.641427E+7	6.534673	0.748446	0	0
0	0	0	14.81874	2.314805	-3.920822	2.314805	6.742975E+9	1.929909E-8	5.181592E+7	6.571588	0.743829	0	0
0	0	0	14.653351	2.31665	-4.349176	2.31665	5.784807E+9	1.72717E-8	5.789818E+7	6.538599	0.739733	0	0
0	0	0	14.48847	2.318445	-4.776238	2.318445	4.965122E+9	1.54743E-8	6.46233E+7	6.573925	0.73534	0	0
0	0	0	14.323596	2.320027	-5.201873	2.320027	4.261616E+9	1.381568E-8	7.238153E+7	6.545054	0.731277	0	0
0	0	0	14.159964	2.321627	-5.624883	2.321627	3.661999E+9	1.237455E-8	8.081101E+7	6.582927	0.727029	0	0
0	0	0	13.9942	2.323147	-6.052886	2.323147	3.14054E+9	1.105756E-8	9.043588E+7	6.547721	0.723051	0	0
0	0	0	13.824026	2.324589	-6.491582	2.324589	2.682349E+9	9.835725E-9	1.016702E+8	6.587352	0.718863	0	0
0	0	0	13.656318	2.326013	-6.924255	2.326013	2.29625E+9	8.779229E-9	1.139052E+8	6.546069	0.715103	0	0
0	0	0	13.488667	2.327329	-7.356129	2.327329	1.965829E+9	7.824562E-9	1.278027E+8	6.589162	0.710822	0	0
0	0	0	13.32158	2.328586	-7.786336	2.328586	1.683834E+9	6.975597E-9	1.433569E+8	6.557227	0.707069	0	0
0	0	0	13.153767	2.329837	-8.21859	2.329837	1.44132E+9	6.223827E-9	1.606728E+8	6.600192	0.702663	0	0
0	0	0	12.98503	2.330979	-8.652408	2.330979	1.232679E+9	5.53673E-9	1.80612E+8	6.556276	0.699042	0	0
0	0	0	12.817028	2.332068	-9.084144	2.332068	1.054958E+9	4.927437E-9	2.029453E+8	6.601222	0.694754	0	0
0	0	0	12.64834	2.333141	-9.517678	2.333141	9.022868E+8	4.386567E-9	2.279687E+8	6.561187	0.690961	0	0
0	0	0	12.478574	2.334185	-9.95388	2.334185	7.70939E+8	3.903268E-9	2.561956E+8	6.612381	0.686733	0	0
0	0	0	12.309511	2.335238	-10.388635	2.335238	6.591406E+8	3.482763E-9	2.871284E+8	6.563559	0.683264	0	0
0	0	0	12.139043	2.336153	-10.825799	2.336153	5.628216E+8	3.091031E-9	3.235167E+8	6.613977	0.679174	0	0
0	0	0	11.966965	2.337014	-11.266666	2.337014	4.798615E+8	2.736853E-9	3.653831E+8	6.56733	0.675645	0	0
0	0	0	11.794872	2.337983	-11.708848	2.337983	4.091236E+8	2.439022E-9	4.100003E+8	6.619944	0.671635	0	0
0	0	0	11.623007	2.338721	-12.148325	2.338721	3.488873E+8	2.15419E-9	4.642115E+8	6.572577	0.668159	0	0
0	0	0	11.451453	2.339563	-12.588252	2.339563	2.976053E+8	1.915572E-9	5.220374E+8	6.617809	0.664168	0	0
0	0	0	11.279825	2.34031	-13.027567	2.34031	2.538438E+8	1.697877E-9	5.889709E+8	6.577728	0.660593	0	0
0	0	0	11.106253	2.341032	-13.471679	2.341032	2.161276E+8	1.5025E-9	6.655573E+8	6.623568	0.656787	0	0
0	0	0	10.933971	2.341806	-13.913257	2.341806	1.842354E+8	1.337196E-9	7.478334E+8	6.584708	0.653291	0	0
0	0	0	10.760056	2.342413	-14.357325	2.342413	1.568118E+8	1.178853E-9	8.482823E+8	6.620101	0.649525	0	0
0	0	0	10.585243	2.343079	-14.804423	2.343079	1.333591E+8	1.043445E-9	9.583638E+8	6.588038	0.645989	0	0
0	0	0	10.411034	2.343736	-15.250064	2.343736	1.134775E+8	9.251885E-10	1.080861E+9	6.619335	0.642342	0	0
0	0	0	10.234294	2.344309	-15.701296	2.344309	9.633369E+7	8.152751E-10	1.22658E+9	6.593153	0.638707	0	0
0	0	0	10.053869	2.344933	-16.162499	2.344933	8.150119E+7	7.19517E-10	1.389821E+9	6.621239	0.635178	0	0
0	0	0	9.874548	2.345462	-16.620001	2.345462	6.902295E+7	6.325115E-10	1.580999E+9	6.596413	0.631623	0	0
0	0	0	9.694883	2.345997	-17.07855	2.345997	5.843661E+7	5.568698E-10	1.795752E+9	6.622806	0.628153	0	0
0	0	0	9.51557	2.346567	-17.536757	2.346567	4.949004E+7	4.926072E-10	2.030015E+9	6.604599	0.624585	0	0
0	0	0	9.334435	2.34705	-17.998657	2.34705	4.18425E+7	4.327735E-10	2.310678E+9	6.62686	0.621287	0	0
0	0	0	9.152737	2.347485	-18.461542	2.347485	3.535824E+7	3.790978E-10	2.637842E+9	6.605457	0.617738	0	0
0	0	0	8.969919	2.347982	-18.928073	2.347982	2.984787E+7	3.33956E-10	2.994406E+9	6.623485	0.614249	0	0
0	0	0	8.785509	2.348472	-19.398658	2.348472	2.515909E+7	2.941391E-10	3.399752E+9	6.613264	0.610806	0	0
0	0	0	8.600446	2.348766	-19.868617	2.348766	2.119404E+7	2.546209E-10	3.927407E+9	6.626302	0.607475	0	0
0	0	0	8.414346	2.349238	-20.343452	2.349238	1.783672E+7	2.242542E-10	4.459224E+9	6.620371	0.603873	0	0
0	0	0	8.223982	2.349663	-20.828571	2.349663	1.495204E+7	1.962103E-10	5.096573E+9	6.622825	0.600628	0	0
0	0	0	8.0341	2.350004	-21.311528	2.350004	1.253949E+7	1.705333E-10	5.863959E+9	6.631652	0.597106	0	0
0	0	0	7.844398	2.350363	-21.794344	2.350363	1.051796E+7	1.48736E-10	6.723322E+9	6.613247	0.593953	0	0
0	0	0	7.655487	2.350717	-22.275185	2.350717	8828808	1.299484E-10	7.695362E+9	6.638682	0.590397	0	0
0	0	0	7.46545	2.350997	-22.758004	2.350997	7403192	1.126038E-10	8.880692E+9	6.611275	0.587278	0	0
0	0	0	7.275675	2.351344	-23.241092	2.351344	6209278	9.851041E-11	1.015121E+10	6.643697	0.583702	0	0
0	0	0	7.085784	2.351685	-23.724485	2.351685	5207355	8.627366E-11	1.159102E+10	6.610901	0.580774	0	0
0	0	0	6.895739	2.352	-24.20801	2.352	4366473	7.542871E-11	1.325755E+10	6.649965	0.577304	0	0
0	0	0	6.70678	2.352323	-24.688977	2.352323	3665065	6.62067E-11	1.510421E+10	6.605619	0.574422	0	0
0	0	0	6.51845	2.352516	-25.166689	2.352516	3078120	5.716792E-11	1.749233E+10	6.656774	0.57082	0	0
0	0	0	6.327498	2.352886	-25.65346	2.352886	2578899	5.061949E-11	1.975524E+10	6.608984	0.567958	0	0
0	0	0	6.139298	2.353093	-26.131154	2.353093	2166162	4.392009E-11	2.276863E+10	6.649652	0.564574	0	0
0	0	0	5.95243	2.35341	-26.607047	2.35341	1821726	3.889209E-11	2.571217E+10	6.611274	0.561579	0	0
0	0	0	5.768527	2.353547	-27.073036	2.353547	1536274	3.357011E-11	2.97884E+10	6.65105	0.558499	0	0
0	0	0	5.585473	2.35383	-27.538959	2.35383	1296570	2.977376E-11	3.358663E+10	6.623172	0.555359	0	0
0	0	0	5.404289	2.354001	-27.998646	2.354001	1096166	2.597195E-11	3.850308E+10	6.643463	0.55245	0	0
0	0	0	5.226004	2.354281	-28.452614	2.354281	929230	2.322473E-11	4.305754E+10	6.631595	0.549297	0	0
0	0	0	5.04919	2.354445	-28.901252	2.354445	788791	2.036656E-11	4.910008E+10	6.631937	0.546527	0	0
0	0	0	4.875243	2.354661	-29.343464	2.354661	671358	1.812897E-11	5.516032E+10	6.638616	0.543203	0	0
0	0	0	4.705085	2.354836	-29.77555	2.354836	573418	1.608006E-11	6.218883E+10	6.625109	0.540571	0	0
0	0	0	4.535286	2.355075	-30.207706	2.355075	489930	1.449925E-11	6.896909E+10	6.652128	0.537266	0	0
0	0	0	4.365504	2.355241	-30.638793	2.355241	418603	1.288444E-11	7.761302E+10	6.615602	0.534733	0	0
0	0	0	4.202713	2.355442	-31.05279	2.355442	359986	1.16449E-11	8.587454E+10	6.655838	0.531481	0	0
0	0	0	4.042797	2.355618	-31.459199	2.355618	310402	1.051094E-11	9.5139E+10	6.614035	0.528935	0	0
0	0	0	3.886573	2.35577	-31.855949	2.35577	268565	9.475815E-12	1.055318E+11	6.660902	0.52567	0	0
0	0	0	3.734309	2.3559	-32.242391	2.3559	233222	8.534877E-12	1.171663E+11	6.614451	0.523084	0	0
0	0	0	3.584872	2.356044	-32.621942	2.356044	203061	7.751141E-12	1.290133E+11	6.656796	0.519984	0	0
0	0	0	3.439322	2.35623	-32.992366	2.35623	177438	7.173863E-12	1.393949E+11	6.617903	0.51726	0	0
0	0	0	3.297186	2.356342	-33.353033	2.356342	155541	6.518942E-12	1.533991E+11	6.657878	0.514305	0	0
0	0	0	3.158146	2.356477	-33.706269	2.356477	136737	5.996499E-12	1.66764E+11	6.624217	0.511456	0	0
0	0	0	3.022299	2.356643	-34.051953	2.356643	120562	5.60706E-12	1.783466E+11	6.648811	0.508784	0	0
0	0	0	2.891124	2.356744	-34.384842	2.356744	106762	5.155335E-12	1.939738E+11	6.637773	0.505875	0	0
0	0	0	2.762537	2.356885	-34.711848	2.356885	94769	4.834866E-12	2.06831E+11	6.636004	0.503276	0	0
0	0	0	2.637014	2.356959	-35.030065	2.356959	84362	4.435012E-12	2.254785E+11	6.658686	0.50017	0	0
0	0	0	2.513655	2.35714	-35.344534	2.35714	75249	4.273319E-12	2.340102E+11	6.62576	0.497802	0	0
0	0	0	2.395098	2.357256	-35.645876	2.357256	67419	4.03845E-12	2.476197E+11	6.66227	0.494761	0	0
0	0	0	2.279881	2.357357	-35.938546	2.357357	60592	3.810461E-12	2.624354E+11	6.62268	0.492241	0	0
0	0	0	2.168259	2.357434	-36.221752	2.357434	54637	3.570622E-12	2.800632E+11	6.665391	0.489313	0	0
0	0	0	2.060712	2.357556	-36.495416	2.357556	49455	3.447205E-12	2.900901E+11	6.621275	0.48676	0	0
0	0	0	1.956913	2.357627	-36.758796	2.357627	44919	3.257978E-12	3.069389E+11	6.660268	0.484042	0	0
0	0	0	1.856578	2.357717	-37.013737	2.357717	40931	3.127828E-12	3.197106E+11	6.622194	0.481364	0	0
0	0	0	1.758611	2.357846	-37.263371	2.357846	37379	3.096933E-12	3.229001E+11	6.650701	0.478871	0	0
0	0	0	1.665552	2.357885	-37.499113	2.357885	34290	2.914636E-12	3.43096E+11	6.636332	0.476101	0	0
0	0	0	1.576341	2.358006	-37.726503	2.358006	31569	2.917783E-12	3.42726E+11	6.634249	0.4737	0	0
0	0	0	1.491164	2.358032	-37.94213	2.358032	29173	2.74796E-12	3.639063E+11	6.648961	0.470863	0	0
0	0	0	1.408706	2.358139	-38.152259	2.358139	27027	2.765581E-12	3.615877E+11	6.622032	0.4687	0	0
0	0	0	1.32999	2.358222	-38.352535	2.358222	25126	2.754398E-12	3.630557E+11	6.659855	0.46585	0	0
0	0	0	1.255153	2.358272	-38.542447	2.358272	23442	2.683407E-12	3.726605E+11	6.611386	0.463713	0	0
0	0	0	1.184081	2.358359	-38.723488	2.358359	21948	2.724793E-12	3.670004E+11	6.65632	0.460949	0	0
0	0	0	1.116316	2.35835	-38.894551	2.35835	20612	2.536527E-12	3.942399E+11	6.613965	0.458647	0	0
0	0	0	1.052521	2.358411	-39.056775	2.358411	19429	2.540281E-12	3.936573E+11	6.652669	0.456068	0	0
0	0	0	0.991381	2.358495	-39.212695	2.358495	18359	2.627327E-12	3.80615E+11	6.627405	0.453496	0	0
0	0	0	0.933409	2.358548	-39.360083	2.358548	17399	2.647851E-12	3.776647E+11	6.637457	0.451247	0	0
0	0	0	0.877929	2.358584	-39.500891	2.358584	16527	2.629009E-12	3.803714E+11	6.632023	0.448634	0	0
0	0	0	0.824474	2.358645	-39.637007	2.358645	15728	2.707666E-12	3.693218E+11	6.621627	0.446385	0	0
0	0	0	0.771941	2.358682	-39.770372	2.358682	14981	2.711934E-12	3.687406E+11	6.656548	0.443582	0	0
0	0	0	0.723583	2.358714	-39.893126	2.358714	14324	2.718024E-12	3.679143E+11	6.616299	0.441537	0	0
0	0	0	0.678025	2.358798	-40.009698	2.358798	13732	2.979163E-12	3.356647E+11	6.661238	0.438773	0	0
0	0	0	0.634387	2.35873	-40.118781	2.35873	13188	2.561753E-12	3.903577E+11	6.610346	0.436722	0	0
0	0	0	0.592701	2.358813	-40.225554	2.358813	12688	2.821095E-12	3.544723E+11	6.658123	0.434196	0	0
0	0	0	0.553727	2.358819	-40.324152	2.358819	12238	2.752138E-12	3.633539E+11	6.623177	0.431907	0	0
0	0	0	0.516721	2.358889	-40.41888	2.358889	11825	3.033707E-12	3.296298E+11	6.639699	0.429697	0	0
0	0	0	0.481683	2.358898	-40.507579	2.358898	11447	2.991331E-12	3.342993E+11	6.63751	0.427158	0	0
0	0	0	0.448589	2.358931	-40.591771	2.358931	11102	3.107518E-12	3.218002E+11	6.617995	0.425166	0	0
0	0	0	0.417071	2.358958	-40.671892	2.358958	10782	3.209709E-12	3.115547E+11	6.658308	0.422494	0	0
0	0	0	0.386183	2.358947	-40.749768	2.358947	10478	3.045492E-12	3.283541E+11	6.60475	0.420621	0	0
0	0	0	0.358087	2.359037	-40.822329	2.359037	10209	3.727024E-12	2.683106E+11	6.656688	0.418108	0	0
0	0	0	0.331078	2.359021	-40.890312	2.359021	9956	3.47972E-12	2.873795E+11	6.603203	0.41599	0	0
0	0	0	0.306143	2.359082	-40.95439	2.359082	9729	4.081907E-12	2.449835E+11	6.649619	0.413622	0	0
0	0	0	0.281747	2.359054	-41.015542	2.359054	9511	3.648183E-12	2.741091E+11	6.618381	0.411525	0	0
0	0	0	0.259099	2.359135	-41.074207	2.359135	9314	4.735797E-12	2.111577E+11	6.629082	0.409381	0	0
0	0	0	0.237709	2.359132	-41.128195	2.359132	9131	4.571867E-12	2.18729E+11	6.642424	0.406908	0	0
0	0	0	0.216662	2.359137	-41.181476	2.359137	8955	4.576913E-12	2.184879E+11	6.612291	0.404988	0	0
0	0	0	0.197403	2.359138	-41.230168	2.359138	8796	4.519124E-12	2.212818E+11	6.649924	0.402627	0	0
0	0	0	0.178929	2.359119	-41.276514	2.359119	8647	4.119867E-12	2.427263E+11	6.599446	0.400754	0	0
0	0	0	0.161516	2.359207	-41.322069	2.359207	8509	6.044586E-12	1.654373E+11	6.636714	0.398425	0	0
0	0	0	0.144904	2.359187	-41.36371	2.359187	8379	5.370585E-12	1.861994E+11	6.617814	0.396281	0	0
0	0	0	0.128929	2.359199	-41.404288	2.359199	8256	5.621337E-12	1.778936E+11	6.620692	0.394237	0	0
