Vload_(V)	ILoad_(A)	RsLoad_(ohm)	SunsVoc_Voltage_(V)	SunsVoc_Current_(A)	Model_Voltage_(V)	Model_Current_(A)	Carrier_Density_(cm-3)	Lifetime_(s)	Inverse_Lifetime_(s-1)	(Carrier_Density+Doping)/qWni^2_(cm^2/C)	Carrier_Density_at_Vmp_(cm-3)	Lifetime_at_Vmp_(s)	Efficiency_(%)	Intensity_(suns)	Dark_IV_Voltage_(V)	Dark_IV_Current_(A)
2.737809	4.886481	0	43.706428	-0.27004	43.914708	-0.27004	1.076502E+14	1.567869E-5	63780.82101	3.524904E+16	3.915478E+12	7.641332E-6	12.148237	1.139929	0	0
2.839017	4.889462	-0.624745	43.553878	0.095028	43.48062	0.095028	9.919595E+13	1.554814E-5	64316.366749	3.522525E+16	0	0	12.120854	1.137311	0	0
3.399683	4.88765	-0.73948	43.400463	0.436114	43.064419	0.436114	9.135842E+13	1.541717E-5	64862.753138	3.520319E+16	0	0	12.136171	1.132673	0	0
6.720682	4.876352	2.564041	43.25141	0.74251	42.679548	0.74251	8.43333E+13	1.52839E-5	65428.330066	3.518342E+16	0	0	12.146333	1.130294	0	0
10.418917	4.867373	2.745041	43.111079	1.014762	42.329885	1.014762	7.821071E+13	1.5171E-5	65915.236183	3.51662E+16	0	0	12.134855	1.127612	0	0
14.050272	4.863421	2.269193	42.972757	1.265075	41.999296	1.265075	7.260844E+13	1.50578E-5	66410.749266	3.515043E+16	0	0	12.141344	1.1224	0	0
17.67366	4.854741	1.953815	42.825925	1.500369	41.671949	1.500369	6.709758E+13	1.488186E-5	67195.895934	3.513492E+16	0	0	12.13777	1.114984	0	0
21.305565	4.840729	1.650584	42.679453	1.725901	41.352635	1.725901	6.201491E+13	1.473605E-5	67860.78136	3.512062E+16	0	0	12.139402	1.108088	0	0
24.924714	4.826271	1.199555	42.529517	1.941826	41.03742	1.941826	5.720881E+13	1.459084E-5	68536.162116	3.51071E+16	0	0	12.130228	1.102005	0	0
28.544364	4.803142	0.766052	42.38213	2.135072	40.742316	2.135072	5.284605E+13	1.442478E-5	69325.157579	3.509482E+16	0	0	12.126526	1.093608	0	0
29.642063	4.791987	0.650122	42.237568	2.311714	40.462909	2.311714	4.888904E+13	1.426019E-5	70125.293026	3.508369E+16	0	0	12.136979	1.083255	0	0
30.727253	4.762666	0.652894	42.093791	2.473538	40.195777	2.473538	4.524636E+13	1.408278E-5	71008.72165	3.507344E+16	0	0	12.156779	1.073061	0	0
31.800205	4.71091	0.700313	41.951385	2.622386	39.940075	2.622386	4.190516E+13	1.390032E-5	71940.805432	3.506403E+16	0	0	12.156595	1.063874	0	0
32.880151	4.634583	0.733581	41.809045	2.761432	39.692057	2.761432	3.881129E+13	1.371642E-5	72905.320926	3.505533E+16	0	0	12.156401	1.054447	0	0
33.951767	4.524586	0.754813	41.666771	2.891463	39.451109	2.891463	3.594645E+13	1.353196E-5	73899.099778	3.504727E+16	0	0	12.147225	1.04423	0	0
34.978604	4.376773	0.761089	41.524284	3.014352	39.215511	3.014352	3.32887E+13	1.335405E-5	74883.652966	3.503979E+16	0	0	12.157247	1.033605	0	0
36.011339	4.173373	0.76017	41.380049	3.130347	38.983543	3.130347	3.079794E+13	1.317091E-5	75924.898776	3.503278E+16	0	0	12.170901	1.023555	0	0
37.018783	3.902772	0.761578	41.234213	3.239018	38.755674	3.239018	2.846852E+13	1.29778E-5	77054.65193	3.502623E+16	0	0	12.180505	1.013642	0	0
38.019105	3.558366	0.754232	41.089292	3.33952	38.535038	3.33952	2.632791E+13	1.27817E-5	78236.831745	3.50202E+16	0	0	12.186693	1.003664	0	0
39.030419	3.125676	0.745113	40.943751	3.432914	38.319292	3.432914	2.433979E+13	1.257574E-5	79518.156614	3.501461E+16	0	0	12.184018	0.993734	0	0
40.011612	2.615548	0.733926	40.799565	3.519517	38.110147	3.519517	2.2518E+13	1.237157E-5	80830.507712	3.500948E+16	0	0	12.176804	0.984482	0	0
40.968316	2.028736	0.730749	40.65729	3.599801	37.907784	3.599801	2.085384E+13	1.217215E-5	82154.779467	3.50048E+16	0	0	12.177526	0.975319	0	0
41.893263	1.383296	0.749599	40.515669	3.674065	37.710719	3.674065	1.931929E+13	1.196717E-5	83561.957255	3.500048E+16	0	0	12.187522	0.965548	0	0
42.722251	0.741239	0.772809	40.373558	3.743636	37.516803	3.743636	1.789276E+13	1.175823E-5	85046.84132	3.499647E+16	0	0	12.205412	0.955555	0	0
34.143559	4.501269	0.756144	40.232116	3.809105	37.326728	3.809105	1.657742E+13	1.155584E-5	86536.342456	3.499276E+16	0	0	12.212432	0.946159	0	0
43.594541	0	0	40.08989	3.870491	37.139034	3.870491	1.535215E+13	1.134832E-5	88118.744734	3.498932E+16	0	0	12.205876	0.937323	0	0
0	0	0	39.945819	3.927798	36.952663	3.927798	1.420318E+13	1.11266E-5	89874.691677	3.498608E+16	0	0	12.192178	0.928439	0	0
0	0	0	39.805161	3.980852	36.772954	3.980852	1.316435E+13	1.091695E-5	91600.707569	3.498316E+16	0	0	12.189611	0.919403	0	0
0	0	0	39.663687	4.030883	36.594774	4.030883	1.219605E+13	1.070536E-5	93411.107242	3.498044E+16	0	0	12.197743	0.910151	0	0
0	0	0	39.521184	4.078104	36.417749	4.078104	1.129263E+13	1.049139E-5	95316.254376	3.497789E+16	0	0	12.209637	0.900788	0	0
0	0	0	39.379399	4.12205	36.243959	4.12205	1.046014E+13	1.027663E-5	97308.142332	3.497555E+16	0	0	12.214917	0.891816	0	0
0	0	0	39.238692	4.163446	36.073205	4.163446	9.694612E+12	1.006985E-5	99306.366739	3.49734E+16	0	0	12.210316	0.883235	0	0
0	0	0	39.09516	4.202292	35.901621	4.202292	8.971364E+12	9.847691E-6	101546.646523	3.497136E+16	0	0	12.200559	0.874774	0	0
0	0	0	38.953016	4.239299	35.732836	4.239299	8.308266E+12	9.641309E-6	103720.354608	3.49695E+16	0	0	12.191305	0.866129	0	0
0	0	0	38.812832	4.274976	35.567026	4.274976	7.702301E+12	9.459598E-6	105712.734643	3.496779E+16	0	0	12.195417	0.857333	0	0
0	0	0	38.672191	4.307211	35.4034	4.307211	7.138743E+12	9.255352E-6	108045.596658	3.49662E+16	0	0	12.206843	0.848497	0	0
0	0	0	38.530586	4.338125	35.239845	4.338125	6.612952E+12	9.057006E-6	110411.760891	3.496473E+16	0	0	12.208067	0.839955	0	0
0	0	0	38.38836	4.366745	35.077437	4.366745	6.123815E+12	8.848943E-6	113007.844268	3.496335E+16	0	0	12.201762	0.831758	0	0
0	0	0	38.24504	4.393558	34.915336	4.393558	5.667488E+12	8.635028E-6	115807.382365	3.496206E+16	0	0	12.186702	0.823823	0	0
0	0	0	38.099825	4.418739	34.752616	4.418739	5.239784E+12	8.413151E-6	118861.530785	3.496086E+16	0	0	12.172984	0.815881	0	0
0	0	0	37.954921	4.442713	34.591134	4.442713	4.845156E+12	8.199813E-6	121953.999016	3.495975E+16	0	0	12.174311	0.807492	0	0
0	0	0	37.810131	4.465681	34.430544	4.465681	4.480516E+12	7.996583E-6	125053.405969	3.495872E+16	0	0	12.178875	0.798999	0	0
0	0	0	37.664589	4.487273	34.270268	4.487273	4.141627E+12	7.791557E-6	128344.057773	3.495777E+16	0	0	12.18226	0.790889	0	0
0	0	0	37.518002	4.507485	34.110017	4.507485	3.8262E+12	7.582026E-6	131890.860594	3.495688E+16	0	0	12.176225	0.783122	0	0
0	0	0	37.371039	4.526469	33.950338	4.526469	3.534071E+12	7.372425E-6	135640.586813	3.495606E+16	0	0	12.159161	0.77581	0	0
0	0	0	37.222753	4.544249	33.790273	4.544249	3.261907E+12	7.158182E-6	139700.274503	3.49553E+16	0	0	12.142507	0.768546	0	0
0	0	0	37.07334	4.561468	33.62953	4.561468	3.008865E+12	6.952716E-6	143828.687924	3.495458E+16	0	0	12.139076	0.760891	0	0
0	0	0	36.925136	4.577255	33.471076	4.577255	2.777261E+12	6.74518E-6	148254.010687	3.495393E+16	0	0	12.143467	0.753212	0	0
0	0	0	36.776311	4.592385	33.312515	4.592385	2.562622E+12	6.544064E-6	152810.25164	3.495333E+16	0	0	12.147603	0.745549	0	0
0	0	0	36.627715	4.606324	33.155089	4.606324	2.36486E+12	6.339515E-6	157740.781313	3.495277E+16	0	0	12.138292	0.738397	0	0
0	0	0	36.479674	4.619549	32.99876	4.619549	2.183012E+12	6.141971E-6	162814.174618	3.495226E+16	0	0	12.117534	0.731596	0	0
0	0	0	36.330066	4.631922	32.841533	4.631922	2.013438E+12	5.940207E-6	168344.314128	3.495178E+16	0	0	12.100239	0.724875	0	0
0	0	0	36.1775	4.643903	32.681686	4.643903	1.854069E+12	5.740203E-6	174209.862771	3.495133E+16	0	0	12.095891	0.717891	0	0
0	0	0	36.026454	4.655314	32.523779	4.655314	1.708715E+12	5.551321E-6	180137.310605	3.495093E+16	0	0	12.096019	0.710834	0	0
0	0	0	35.875228	4.665906	32.36632	4.665906	1.574602E+12	5.361254E-6	186523.524017	3.495055E+16	0	0	12.096116	0.703962	0	0
0	0	0	35.721519	4.67618	32.206652	4.67618	1.449068E+12	5.174877E-6	193241.29013	3.495019E+16	0	0	12.083565	0.69744	0	0
0	0	0	35.568398	4.685927	32.04797	4.685927	1.333966E+12	4.995345E-6	200186.388844	3.494987E+16	0	0	12.061805	0.69119	0	0
0	0	0	35.411193	4.694828	31.885893	4.694828	1.225297E+12	4.801528E-6	208267.026896	3.494956E+16	0	0	12.040698	0.684988	0	0
0	0	0	35.252584	4.703659	31.722488	4.703659	1.124626E+12	4.619895E-6	216455.133916	3.494928E+16	0	0	12.033684	0.678562	0	0
0	0	0	35.094775	4.711828	31.560378	4.711828	1.032672E+12	4.440564E-6	225196.625095	3.494902E+16	0	0	12.034877	0.671889	0	0
0	0	0	34.936231	4.719719	31.397755	4.719719	9.478592E+11	4.268732E-6	234261.613372	3.494878E+16	0	0	12.034684	0.665447	0	0
0	0	0	34.775384	4.727294	31.233099	4.727294	8.689291E+11	4.099489E-6	243932.861888	3.494856E+16	0	0	12.020168	0.659325	0	0
0	0	0	34.6139	4.73418	31.068335	4.73418	7.962971E+11	3.926682E-6	254667.960503	3.494836E+16	0	0	11.993166	0.653578	0	0
0	0	0	34.449394	4.741093	30.90057	4.741093	7.285448E+11	3.7634E-6	265717.161654	3.494817E+16	0	0	11.976068	0.647511	0	0
0	0	0	34.282927	4.74722	30.731462	4.74722	6.65851E+11	3.590868E-6	278484.234422	3.494799E+16	0	0	11.968348	0.641221	0	0
0	0	0	34.115726	4.753514	30.561507	4.753514	6.083101E+11	3.435841E-6	291049.578405	3.494783E+16	0	0	11.970593	0.634907	0	0
0	0	0	33.947773	4.759601	30.390969	4.759601	5.555159E+11	3.288185E-6	304119.145693	3.494768E+16	0	0	11.965827	0.628825	0	0
0	0	0	33.776848	4.765227	30.217843	4.765227	5.064888E+11	3.137089E-6	318766.884623	3.494754E+16	0	0	11.941694	0.623221	0	0
0	0	0	33.604272	4.77017	30.043601	4.77017	4.613768E+11	2.979114E-6	335670.320854	3.494742E+16	0	0	11.918775	0.617594	0	0
0	0	0	33.428953	4.77534	29.866481	4.77534	4.196597E+11	2.835796E-6	352634.723559	3.49473E+16	0	0	11.899577	0.611767	0	0
0	0	0	33.251313	4.78013	29.687357	4.78013	3.812362E+11	2.692191E-6	371444.711054	3.494719E+16	0	0	11.892696	0.605764	0	0
0	0	0	33.072384	4.784676	29.507144	4.784676	3.460891E+11	2.553126E-6	391676.661319	3.494709E+16	0	0	11.895332	0.599761	0	0
0	0	0	32.891576	4.789314	29.32501	4.789314	3.138633E+11	2.425904E-6	412217.392647	3.4947E+16	0	0	11.879875	0.594182	0	0
0	0	0	32.707697	4.79342	29.140241	4.79342	2.841661E+11	2.293282E-6	436056.299227	3.494692E+16	0	0	11.856623	0.588993	0	0
0	0	0	32.521384	4.797461	28.95312	4.797461	2.569404E+11	2.16769E-6	461320.530586	3.494684E+16	0	0	11.826935	0.583853	0	0
0	0	0	32.332	4.801165	28.763217	4.801165	2.319377E+11	2.041725E-6	489782.004174	3.494677E+16	0	0	11.811223	0.578289	0	0
0	0	0	32.14113	4.804919	28.571812	4.804919	2.091999E+11	1.926316E-6	519125.63499	3.494671E+16	0	0	11.802317	0.572789	0	0
0	0	0	31.94745	4.808439	28.377809	4.808439	1.884047E+11	1.813083E-6	551546.831862	3.494665E+16	0	0	11.800975	0.567353	0	0
0	0	0	31.759553	4.811736	28.189687	4.811736	1.702079E+11	1.710226E-6	584718.17805	3.49466E+16	0	0	11.782391	0.562269	0	0
0	0	0	31.560858	4.814849	27.991037	4.814849	1.528736E+11	1.602807E-6	623905.346946	3.494655E+16	0	0	11.749702	0.557455	0	0
0	0	0	31.361053	4.817956	27.791295	4.817956	1.372223E+11	1.503948E-6	664916.739314	3.49465E+16	0	0	11.719876	0.552626	0	0
0	0	0	31.160774	4.82076	27.591314	4.82076	1.231418E+11	1.407204E-6	710628.820304	3.494646E+16	0	0	11.709594	0.547278	0	0
0	0	0	30.958666	4.823412	27.38964	4.823412	1.103969E+11	1.314604E-6	760685.374899	3.494643E+16	0	0	11.704915	0.541914	0	0
0	0	0	30.754189	4.826069	27.185624	4.826069	9.884439E+10	1.228802E-6	813800.433316	3.494639E+16	0	0	11.69278	0.537013	0	0
0	0	0	30.545367	4.828444	26.977526	4.828444	8.829316E+10	1.14255E-6	875234.94446	3.494637E+16	0	0	11.65695	0.532615	0	0
0	0	0	30.335287	4.830754	26.768236	4.830754	7.881462E+10	1.062167E-6	941471.54817	3.494634E+16	0	0	11.623214	0.528001	0	0
0	0	0	30.121614	4.833112	26.555362	4.833112	7.021709E+10	9.881169E-7	1012026.022937	3.494631E+16	0	0	11.606136	0.523227	0	0
0	0	0	29.905294	4.835432	26.339903	4.835432	6.2468E+10	9.190243E-7	1088110.458312	3.494629E+16	0	0	11.600743	0.518039	0	0
0	0	0	29.682963	4.837379	26.118782	4.837379	5.539379E+10	8.472528E-7	1180285.283491	3.494627E+16	0	0	11.592887	0.513258	0	0
0	0	0	29.456696	4.839303	25.89379	4.839303	4.901628E+10	7.80292E-7	1281571.466749	3.494625E+16	0	0	11.564398	0.508883	0	0
0	0	0	29.228632	4.841536	25.666798	4.841536	4.33309E+10	7.240618E-7	1381097.608331	3.494624E+16	0	0	11.530389	0.504573	0	0
0	0	0	28.99668	4.843363	25.436265	4.843363	3.822455E+10	6.657974E-7	1501958.427936	3.494622E+16	0	0	11.500303	0.500167	0	0
0	0	0	28.762931	4.844968	25.204123	4.844968	3.368722E+10	6.094467E-7	1640832.506503	3.494621E+16	0	0	11.485826	0.495457	0	0
0	0	0	28.526553	4.846816	24.969205	4.846816	2.96463E+10	5.613338E-7	1781471.10851	3.49462E+16	0	0	11.481025	0.490484	0	0
0	0	0	28.286597	4.848318	24.731009	4.848318	2.60397E+10	5.124434E-7	1951435.120834	3.494619E+16	0	0	11.455739	0.486198	0	0
0	0	0	28.042917	4.849922	24.489059	4.849922	2.282586E+10	4.689094E-7	2132608.118274	3.494618E+16	0	0	11.412579	0.482119	0	0
0	0	0	27.79303	4.851315	24.241133	4.851315	1.994165E+10	4.258867E-7	2348042.239781	3.494617E+16	0	0	11.376716	0.478088	0	0
0	0	0	27.539647	4.85274	23.989731	4.85274	1.738898E+10	3.870598E-7	2583580.325065	3.494617E+16	0	0	11.364966	0.47337	0	0
0	0	0	27.284925	4.854204	23.73698	4.854204	1.51521E+10	3.525596E-7	2836399.965528	3.494616E+16	0	0	11.359039	0.468573	0	0
0	0	0	27.02767	4.855445	23.481891	4.855445	1.318491E+10	3.190554E-7	3134251.804437	3.494615E+16	0	0	11.337109	0.464294	0	0
0	0	0	26.768848	4.856713	23.225234	4.856713	1.14634E+10	2.89215E-7	3457635.207805	3.494615E+16	0	0	11.2937	0.460495	0	0
0	0	0	26.511414	4.858122	22.969849	4.858122	9.97414E+9	2.641443E-7	3785809.944159	3.494614E+16	0	0	11.255315	0.456472	0	0
0	0	0	26.254781	4.859157	22.715528	4.859157	8.682114E+9	2.386379E-7	4190449.390172	3.494614E+16	0	0	11.239744	0.451994	0	0
0	0	0	25.995926	4.860105	22.459077	4.860105	7.548383E+9	2.149361E-7	4652545.803855	3.494614E+16	0	0	11.232979	0.44758	0	0
0	0	0	25.733396	4.861048	22.198999	4.861048	6.549671E+9	1.934127E-7	5170290.055282	3.494614E+16	0	0	11.19775	0.443732	0	0
0	0	0	25.471045	4.862219	21.938935	4.862219	5.683649E+9	1.759356E-7	5683898.912674	3.494613E+16	0	0	11.158328	0.440052	0	0
0	0	0	25.206211	4.862966	21.676727	4.862966	4.925521E+9	1.573168E-7	6356598.396046	3.494613E+16	0	0	11.117487	0.436205	0	0
0	0	0	24.93932	4.864039	21.412249	4.864039	4.26377E+9	1.426914E-7	7008130.44208	3.494613E+16	0	0	11.104037	0.431966	0	0
0	0	0	24.67037	4.864733	21.146015	4.864733	3.686823E+9	1.273183E-7	7854330.911215	3.494613E+16	0	0	11.090352	0.427664	0	0
0	0	0	24.400261	4.865757	20.878396	4.865757	3.185946E+9	1.154579E-7	8661165.460621	3.494613E+16	0	0	11.051505	0.424215	0	0
0	0	0	24.127685	4.866521	20.60853	4.866521	2.749448E+9	1.034531E-7	9666213.151237	3.494612E+16	0	0	11.001169	0.420855	0	0
0	0	0	23.851923	4.867095	20.335655	4.867095	2.368672E+9	9.176634E-8	1.089724E+7	3.494612E+16	0	0	10.974241	0.417055	0	0
0	0	0	23.575999	4.867962	20.062408	4.867962	2.040449E+9	8.275093E-8	1.208446E+7	3.494612E+16	0	0	10.967272	0.412952	0	0
0	0	0	23.297183	4.868688	19.786407	4.868688	1.754963E+9	7.407716E-8	1.349944E+7	3.494612E+16	0	0	10.955918	0.409081	0	0
0	0	0	23.015655	4.869392	19.507744	4.869392	1.507209E+9	6.62417E-8	1.509623E+7	3.494612E+16	0	0	10.902167	0.40608	0	0
0	0	0	22.732723	4.869988	19.227771	4.869988	1.293449E+9	5.890125E-8	1.697757E+7	3.494612E+16	0	0	10.85367	0.402751	0	0
0	0	0	22.447308	4.870644	18.945304	4.870644	1.108517E+9	5.256939E-8	1.902248E+7	3.494612E+16	0	0	10.82845	0.399015	0	0
0	0	0	22.159002	4.871495	18.659841	4.871495	9.485415E+8	4.753601E-8	2.103668E+7	3.494612E+16	0	0	10.828486	0.395024	0	0
0	0	0	21.866824	4.871711	18.371008	4.871711	8.099562E+8	4.11865E-8	2.42798E+7	3.494612E+16	0	0	10.794095	0.39172	0	0
0	0	0	21.573487	4.872594	18.080553	4.872594	6.911853E+8	3.738208E-8	2.675078E+7	3.494612E+16	0	0	10.739024	0.388798	0	0
0	0	0	21.276392	4.87306	17.786686	4.87306	5.886341E+8	3.294098E-8	3.035732E+7	3.494612E+16	0	0	10.703426	0.38539	0	0
0	0	0	20.976603	4.873483	17.490187	4.873483	5.005686E+8	2.892344E-8	3.457404E+7	3.494612E+16	0	0	10.695638	0.381534	0	0
0	0	0	20.674755	4.874008	17.191583	4.874008	4.252052E+8	2.560406E-8	3.905631E+7	3.494612E+16	0	0	10.664716	0.378278	0	0
0	0	0	20.371976	4.874799	16.891869	4.874799	3.610064E+8	2.321022E-8	4.308446E+7	3.494612E+16	0	0	10.614239	0.375356	0	0
0	0	0	20.064591	4.874929	16.588077	4.874929	3.057383E+8	1.987815E-8	5.030649E+7	3.494612E+16	0	0	10.568269	0.372195	0	0
0	0	0	19.756846	4.875715	16.283463	4.875715	2.588811E+8	1.80598E-8	5.53716E+7	3.494612E+16	0	0	10.562016	0.368483	0	0
0	0	0	19.445835	4.876056	15.975939	4.876056	2.188185E+8	1.576479E-8	6.34325E+7	3.494612E+16	0	0	10.536095	0.365123	0	0
0	0	0	19.131916	4.876549	15.665434	4.876549	1.846652E+8	1.396464E-8	7.160946E+7	3.494612E+16	0	0	10.475709	0.362321	0	0
0	0	0	18.817344	4.876826	15.354439	4.876826	1.557875E+8	1.2118E-8	8.252189E+7	3.494612E+16	0	0	10.421659	0.359511	0	0
0	0	0	18.500501	4.877394	15.040993	4.877394	1.312644E+8	1.084968E-8	9.216862E+7	3.494612E+16	0	0	10.409331	0.355927	0	0
0	0	0	18.179933	4.877779	14.723999	4.877779	1.103792E+8	9.526697E-9	1.049682E+8	3.494612E+16	0	0	10.389938	0.352639	0	0
0	0	0	17.859089	4.878158	14.406736	4.878158	9.280305E+7	8.374698E-9	1.194073E+8	3.494612E+16	0	0	10.336705	0.349996	0	0
0	0	0	17.536839	4.878386	14.088192	4.878386	7.796639E+7	7.233583E-9	1.382441E+8	3.494612E+16	0	0	10.290684	0.347091	0	0
0	0	0	17.211535	4.878765	13.766523	4.878765	6.539363E+7	6.365304E-9	1.571017E+8	3.494612E+16	0	0	10.271023	0.343802	0	0
0	0	0	16.889514	4.879182	13.448072	4.879182	5.494578E+7	5.654012E-9	1.768656E+8	3.494612E+16	0	0	10.245778	0.340561	0	0
0	0	0	16.566104	4.879372	13.128411	4.879372	4.613253E+7	4.873732E-9	2.051816E+8	3.494612E+16	0	0	10.184864	0.338223	0	0
0	0	0	16.237582	4.879843	12.8035	4.879843	3.862601E+7	4.370457E-9	2.28809E+8	3.494612E+16	0	0	10.140558	0.335405	0	0
0	0	0	15.91004	4.880314	12.479558	4.880314	3.235806E+7	3.941101E-9	2.537362E+8	3.494612E+16	0	0	10.129808	0.332044	0	0
0	0	0	15.58008	4.880444	12.153468	4.880444	2.707183E+7	3.368279E-9	2.968876E+8	3.494612E+16	0	0	10.097317	0.329306	0	0
0	0	0	15.252832	4.88084	11.829871	4.88084	2.268242E+7	3.020009E-9	3.311248E+8	3.494612E+16	0	0	10.032233	0.326984	0	0
0	0	0	14.923836	4.880964	11.504738	4.880964	1.898675E+7	2.58506E-9	3.868383E+8	3.494612E+16	0	0	9.994891	0.324094	0	0
0	0	0	14.592374	4.881132	11.177137	4.881132	1.587205E+7	2.228849E-9	4.486621E+8	3.494612E+16	0	0	9.985048	0.320797	0	0
0	0	0	14.261287	4.881604	10.849696	4.881604	1.327099E+7	2.043697E-9	4.893094E+8	3.494612E+16	0	0	9.934602	0.318498	0	0
0	0	0	13.929449	4.881793	10.52171	4.881793	1.109169E+7	1.777185E-9	5.626875E+8	3.494612E+16	0	0	9.863814	0.316335	0	0
0	0	0	13.597709	4.881972	10.193829	4.881972	9270745	1.544323E-9	6.475328E+8	3.494612E+16	0	0	9.841503	0.313198	0	0
0	0	0	13.266295	4.882221	9.866222	4.882221	7750120	1.366552E-9	7.317687E+8	3.494612E+16	0	0	9.821454	0.310229	0	0
0	0	0	12.940191	4.882536	9.543815	4.882536	6497534	1.236938E-9	8.084482E+8	3.494612E+16	0	0	9.749185	0.308161	0	0
0	0	0	12.608598	4.882698	9.216091	4.882698	5431255	1.078375E-9	9.273213E+8	3.494612E+16	0	0	9.701599	0.305663	0	0
0	0	0	12.279781	4.88298	8.891029	4.88298	4546778	9.754056E-10	1.025215E+9	3.494612E+16	0	0	9.686806	0.302478	0	0
0	0	0	11.952354	4.883099	8.567451	4.883099	3809195	8.459748E-10	1.182068E+9	3.494612E+16	0	0	9.634713	0.300347	0	0
0	0	0	11.624861	4.883364	8.243708	4.883364	3191152	7.69087E-10	1.300243E+9	3.494612E+16	0	0	9.562982	0.298168	0	0
0	0	0	11.299671	4.883576	7.922278	4.883576	2676716	6.920241E-10	1.445036E+9	3.494612E+16	0	0	9.550296	0.29515	0	0
0	0	0	10.978107	4.883473	7.604648	4.883473	2249617	5.617014E-10	1.780305E+9	3.494612E+16	0	0	9.509143	0.292612	0	0
0	0	0	10.654502	4.884009	7.28456	4.884009	1888580	5.738826E-10	1.742517E+9	3.494612E+16	0	0	9.435707	0.290752	0	0
0	0	0	10.334767	4.883982	6.968685	4.883982	1588807	4.775568E-10	2.093992E+9	3.494612E+16	0	0	9.398777	0.28811	0	0
0	0	0	10.018104	4.884166	6.655699	4.884166	1338838	4.344487E-10	2.301768E+9	3.494612E+16	0	0	9.37318	0.285396	0	0
0	0	0	9.702503	4.884372	6.343748	4.884372	1128844	4.020692E-10	2.487134E+9	3.494612E+16	0	0	9.301435	0.283424	0	0
0	0	0	9.390495	4.884388	6.035477	4.884388	953638	3.423031E-10	2.921388E+9	3.494612E+16	0	0	9.265965	0.280886	0	0
