Vload_(V)	ILoad_(A)	RsLoad_(ohm)	SunsVoc_Voltage_(V)	SunsVoc_Current_(A)	Model_Voltage_(V)	Model_Current_(A)	Carrier_Density_(cm-3)	Lifetime_(s)	Inverse_Lifetime_(s-1)	(Carrier_Density+Doping)/qWni^2_(cm^2/C)	Carrier_Density_at_Vmp_(cm-3)	Lifetime_at_Vmp_(s)	Efficiency_(%)	Intensity_(suns)	Dark_IV_Voltage_(V)	Dark_IV_Current_(A)
5.160969	4.935009	0	43.346445	-0.168612	43.41718	-0.168612	8.874772E+13	1.305962E-5	76571.919009	3.519585E+16	4.278892E+12	4.614019E-6	11.022552	1.117436	0	0
5.295988	4.938609	-1.079065	43.188325	0.193672	43.103457	0.193672	8.152415E+13	1.29133E-5	77439.551418	3.517552E+16	0	0	11.009894	1.11494	0	0
5.352984	4.938671	-1.090314	43.024326	0.526996	42.783178	0.526996	7.46488E+13	1.271838E-5	78626.37953	3.515617E+16	0	0	11.024195	1.111071	0	0
7.023457	4.906087	3.572482	42.861943	0.832412	42.465064	0.832412	6.840961E+13	1.252304E-5	79852.784086	3.513862E+16	0	0	11.03116	1.109675	0	0
10.625103	4.808047	4.315464	42.70366	1.105095	42.156097	1.105095	6.28277E+13	1.232009E-5	81168.249637	3.512291E+16	0	0	11.004703	1.10725	0	0
14.240057	4.720597	4.059672	42.545198	1.355417	41.848217	1.355417	5.769358E+13	1.210447E-5	82614.126416	3.510846E+16	0	0	11.012899	1.101522	0	0
17.860143	4.581603	3.793347	42.387504	1.586398	41.54218	1.586398	5.299914E+13	1.188655E-5	84128.713139	3.509525E+16	0	0	11.027268	1.094399	0	0
21.492495	4.496005	3.238621	42.224745	1.806347	41.227472	1.806347	4.855263E+13	1.165483E-5	85801.348032	3.508274E+16	0	0	11.030369	1.088137	0	0
25.122555	4.42964	2.58399	42.055894	2.012179	40.904825	2.012179	4.433212E+13	1.139113E-5	87787.632727	3.507086E+16	0	0	11.038693	1.082218	0	0
28.76715	4.384841	1.850389	41.883237	2.202106	40.578583	2.202106	4.039438E+13	1.110065E-5	90084.842537	3.505978E+16	0	0	11.036208	1.074529	0	0
29.851767	4.380521	1.611376	41.706513	2.379105	40.2473	2.379105	3.672477E+13	1.079111E-5	92668.860447	3.504946E+16	0	0	11.050552	1.065172	0	0
30.95614	4.363916	1.387206	41.528939	2.541456	39.916809	2.541456	3.337236E+13	1.047117E-5	95500.265493	3.504002E+16	0	0	11.066988	1.056429	0	0
32.043386	4.326426	1.199911	41.348621	2.692942	39.583006	2.692942	3.028038E+13	1.014295E-5	98590.630958	3.503132E+16	0	0	11.069408	1.047974	0	0
33.112097	4.236819	1.085544	41.164774	2.834348	39.244859	2.834348	2.742201E+13	9.803809E-6	102001.166448	3.502328E+16	0	0	11.07587	1.038976	0	0
34.140885	4.105946	1.005649	40.980552	2.96542	38.907284	2.96542	2.482789E+13	9.467074E-6	105629.254474	3.501598E+16	0	0	11.086898	1.028893	0	0
35.186357	3.929165	0.945084	40.796363	3.08779	38.570319	3.08779	2.247913E+13	9.139298E-6	109417.597188	3.500937E+16	0	0	11.103063	1.018682	0	0
36.207788	3.710013	0.894387	40.612517	3.201171	38.235175	3.201171	2.035597E+13	8.817289E-6	113413.545461	3.50034E+16	0	0	11.116443	1.009182	0	0
37.228489	3.432385	0.849812	40.428033	3.306355	37.900484	3.306355	1.842672E+13	8.497102E-6	117687.178243	3.499797E+16	0	0	11.123493	0.999881	0	0
38.239913	3.091716	0.81333	40.242619	3.404268	37.565616	3.404268	1.667168E+13	8.179549E-6	122256.131217	3.499303E+16	0	0	11.132482	0.990045	0	0
39.242514	2.676373	0.77951	40.055114	3.495049	37.229268	3.495049	1.506658E+13	7.858068E-6	127257.744852	3.498851E+16	0	0	11.140208	0.980034	0	0
40.207702	2.188261	0.756933	39.86738	3.580261	36.893196	3.580261	1.361416E+13	7.547168E-6	132500.029241	3.498443E+16	0	0	11.144362	0.970406	0	0
41.152288	1.620921	0.767117	39.677784	3.660141	36.555223	3.660141	1.228925E+13	7.239556E-6	138130.020026	3.49807E+16	0	0	11.152952	0.960882	0	0
42.022844	1.014515	0.791236	39.488318	3.734264	36.218898	3.734264	1.109395E+13	6.938848E-6	144116.143712	3.497733E+16	0	0	11.154623	0.951278	0	0
42.654584	0.53127	0.773829	39.296729	3.803994	35.88012	3.803994	1.000334E+13	6.642452E-6	150546.819994	3.497427E+16	0	0	11.159456	0.941378	0	0
32.790195	4.268782	1.113	39.10661	3.869375	35.544331	3.869375	9.027027E+12	6.36192E-6	157185.252053	3.497152E+16	0	0	11.160468	0.931782	0	0
43.274961	0	0	38.919285	3.930486	35.213722	3.930486	8.158241E+12	6.099415E-6	163950.143404	3.496907E+16	0	0	11.16153	0.922138	0	0
0	0	0	38.73521	3.987272	34.889363	3.987272	7.385979E+12	5.852908E-6	170855.251944	3.49669E+16	0	0	11.158282	0.912701	0	0
0	0	0	38.553781	4.039445	34.570991	4.039445	6.696347E+12	5.61556E-6	178076.618757	3.496496E+16	0	0	11.16074	0.903041	0	0
0	0	0	38.375456	4.087678	34.258955	4.087678	6.081265E+12	5.390043E-6	185527.289152	3.496323E+16	0	0	11.159923	0.893389	0	0
0	0	0	38.194403	4.133173	33.943639	4.133173	5.51452E+12	5.165044E-6	193609.206301	3.496163E+16	0	0	11.159111	0.884032	0	0
0	0	0	38.012876	4.176259	33.628199	4.176259	4.999293E+12	4.948359E-6	202087.1884	3.496018E+16	0	0	11.158996	0.874875	0	0
0	0	0	37.828899	4.21722	33.309514	4.21722	4.526189E+12	4.735734E-6	211160.518764	3.495885E+16	0	0	11.151545	0.866005	0	0
0	0	0	37.642276	4.25541	32.988101	4.25541	4.091986E+12	4.522028E-6	221139.697449	3.495763E+16	0	0	11.145702	0.857286	0	0
0	0	0	37.452369	4.293101	32.660611	4.293101	3.692867E+12	4.320584E-6	231450.187226	3.495651E+16	0	0	11.136443	0.848487	0	0
0	0	0	37.258608	4.328308	32.32843	4.328308	3.32573E+12	4.116836E-6	242904.975686	3.495548E+16	0	0	11.128484	0.839761	0	0
0	0	0	37.065483	4.360169	31.999489	4.360169	2.996115E+12	3.914383E-6	255468.112333	3.495455E+16	0	0	11.119536	0.831201	0	0
0	0	0	36.871656	4.390578	31.669748	4.390578	2.698137E+12	3.721968E-6	268675.075928	3.495371E+16	0	0	11.109689	0.822834	0	0
0	0	0	36.676458	4.418847	31.339109	4.418847	2.427988E+12	3.532741E-6	283066.297792	3.495295E+16	0	0	11.094214	0.814793	0	0
0	0	0	36.481683	4.444941	31.01049	4.444941	2.185383E+12	3.349058E-6	298591.386613	3.495227E+16	0	0	11.082232	0.806744	0	0
0	0	0	36.284394	4.470036	30.678078	4.470036	1.964344E+12	3.172792E-6	315179.777094	3.495164E+16	0	0	11.069266	0.798743	0	0
0	0	0	36.089407	4.49359	30.349991	4.49359	1.767857E+12	3.007795E-6	332469.50117	3.495109E+16	0	0	11.054199	0.79095	0	0
0	0	0	35.894551	4.515828	30.02273	4.515828	1.591135E+12	2.850738E-6	350786.382604	3.495059E+16	0	0	11.040564	0.783181	0	0
0	0	0	35.699761	4.537379	29.695454	4.537379	1.432126E+12	2.704916E-6	369697.272796	3.495015E+16	0	0	11.028222	0.775475	0	0
0	0	0	35.504954	4.557254	29.369417	4.557254	1.288996E+12	2.562672E-6	390217.772178	3.494974E+16	0	0	11.007966	0.768056	0	0
0	0	0	35.313202	4.575858	29.048912	4.575858	1.162085E+12	2.430035E-6	411516.791068	3.494939E+16	0	0	10.98839	0.76071	0	0
0	0	0	35.124716	4.59348	28.733972	4.59348	1.049521E+12	2.307888E-6	433296.637384	3.494907E+16	0	0	10.965572	0.753451	0	0
0	0	0	34.938599	4.610125	28.423286	4.610125	9.490734E+11	2.193928E-6	455803.479308	3.494879E+16	0	0	10.94492	0.746343	0	0
0	0	0	34.754345	4.625974	28.11589	4.625974	8.591031E+11	2.087799E-6	478973.288253	3.494853E+16	0	0	10.922602	0.739284	0	0
0	0	0	34.57138	4.640946	27.811079	4.640946	7.78204E+11	1.987487E-6	503147.888791	3.494831E+16	0	0	10.899577	0.732344	0	0
0	0	0	34.391144	4.65508	27.51109	4.65508	7.059627E+11	1.89402E-6	527977.457889	3.49481E+16	0	0	10.874377	0.725547	0	0
0	0	0	34.213195	4.668249	27.215492	4.668249	6.412194E+11	1.805251E-6	553939.658089	3.494792E+16	0	0	10.84796	0.718695	0	0
0	0	0	34.037793	4.680936	26.924033	4.680936	5.832162E+11	1.723938E-6	580067.303961	3.494776E+16	0	0	10.821354	0.711891	0	0
0	0	0	33.863731	4.692784	26.635421	4.692784	5.308438E+11	1.64588E-6	607577.536992	3.494761E+16	0	0	10.797033	0.705023	0	0
0	0	0	33.690258	4.704007	26.348212	4.704007	4.833279E+11	1.571366E-6	636388.801248	3.494748E+16	0	0	10.768699	0.698386	0	0
0	0	0	33.515559	4.714683	26.059501	4.714683	4.397736E+11	1.499045E-6	667091.25425	3.494735E+16	0	0	10.739392	0.691749	0	0
0	0	0	33.343294	4.724992	25.77473	4.724992	4.006708E+11	1.432794E-6	697936.817472	3.494724E+16	0	0	10.706229	0.6852	0	0
0	0	0	33.172237	4.734447	25.49281	4.734447	3.652834E+11	1.367829E-6	731085.712152	3.494714E+16	0	0	10.671245	0.678739	0	0
0	0	0	32.999695	4.7436	25.208683	4.7436	3.327538E+11	1.305604E-6	765929.005943	3.494705E+16	0	0	10.641289	0.672358	0	0
0	0	0	32.827544	4.752304	24.925541	4.752304	3.031853E+11	1.24626E-6	802400.612607	3.494697E+16	0	0	10.602977	0.66608	0	0
0	0	0	32.652257	4.760445	24.638093	4.760445	2.757762E+11	1.186458E-6	842844.910952	3.494689E+16	0	0	10.571226	0.659746	0	0
0	0	0	32.476316	4.768208	24.34993	4.768208	2.507564E+11	1.129025E-6	885720.17108	3.494682E+16	0	0	10.533544	0.65362	0	0
0	0	0	32.299886	4.775774	24.061017	4.775774	2.279461E+11	1.075088E-6	930156.812704	3.494676E+16	0	0	10.500025	0.647533	0	0
0	0	0	32.122116	4.782771	23.770685	4.782771	2.070607E+11	1.021468E-6	978983.273032	3.49467E+16	0	0	10.46626	0.641168	0	0
0	0	0	31.947499	4.789526	23.485423	4.789526	1.884097E+11	9.726205E-7	1028150.258297	3.494665E+16	0	0	10.438174	0.634834	0	0
0	0	0	31.768177	4.795741	23.193479	4.795741	1.710033E+11	9.221532E-7	1084418.546936	3.49466E+16	0	0	10.398943	0.629027	0	0
0	0	0	31.585099	4.802059	22.895194	4.802059	1.5489E+11	8.749528E-7	1142918.788437	3.494655E+16	0	0	10.358093	0.623212	0	0
0	0	0	31.402167	4.807791	22.597939	4.807791	1.403062E+11	8.282861E-7	1207312.236919	3.494651E+16	0	0	10.321939	0.617213	0	0
0	0	0	31.218778	4.813119	22.300468	4.813119	1.270642E+11	7.82901E-7	1277300.766243	3.494647E+16	0	0	10.284049	0.61151	0	0
0	0	0	31.03356	4.818343	22.000089	4.818343	1.149581E+11	7.40025E-7	1351305.721894	3.494644E+16	0	0	10.237281	0.605854	0	0
0	0	0	30.846822	4.823403	21.697409	4.823403	1.039201E+11	6.992966E-7	1430008.407309	3.494641E+16	0	0	10.192433	0.600199	0	0
0	0	0	30.658141	4.828145	21.392061	4.828145	9.384323E+10	6.595113E-7	1516274.213838	3.494638E+16	0	0	10.150696	0.594391	0	0
0	0	0	30.469525	4.832816	21.086742	4.832816	8.474649E+10	6.228044E-7	1605640.426226	3.494636E+16	0	0	10.108371	0.58872	0	0
0	0	0	30.279292	4.837099	20.779436	4.837099	7.646467E+10	5.865213E-7	1704967.899086	3.494633E+16	0	0	10.057659	0.583288	0	0
0	0	0	30.089075	4.841267	20.472191	4.841267	6.899279E+10	5.527368E-7	1809179.475268	3.494631E+16	0	0	10.008588	0.577855	0	0
0	0	0	29.897078	4.845265	20.1623	4.845265	6.219115E+10	5.204425E-7	1921441.885296	3.494629E+16	0	0	9.962189	0.572311	0	0
0	0	0	29.704018	4.848929	19.851235	4.848929	5.602788E+10	4.888258E-7	2045718.365243	3.494627E+16	0	0	9.907262	0.567142	0	0
0	0	0	29.512511	4.85278	19.542063	4.85278	5.051776E+10	4.613896E-7	2167365.503381	3.494626E+16	0	0	9.856097	0.561965	0	0
0	0	0	29.320628	4.856007	19.23342	4.856007	4.554028E+10	4.329184E-7	2309904.380055	3.494624E+16	0	0	9.803983	0.556661	0	0
0	0	0	29.130248	4.859228	18.927008	4.859228	4.108659E+10	4.071833E-7	2455896.42273	3.494623E+16	0	0	9.76508	0.551364	0	0
0	0	0	28.94044	4.862471	18.621305	4.862471	3.707992E+10	3.839052E-7	2604809.672596	3.494622E+16	0	0	9.709534	0.546299	0	0
0	0	0	28.748981	4.865244	18.313867	4.865244	3.343414E+10	3.599168E-7	2778419.766687	3.494621E+16	0	0	9.659715	0.541305	0	0
0	0	0	28.560692	4.868339	18.010597	4.868339	3.01985E+10	3.401782E-7	2939635.342092	3.49462E+16	0	0	9.603973	0.536336	0	0
0	0	0	28.371145	4.870893	17.706392	4.870893	2.725746E+10	3.19279E-7	3132056.744724	3.494619E+16	0	0	9.563824	0.531214	0	0
0	0	0	28.183019	4.873562	17.404059	4.873562	2.462175E+10	3.009314E-7	3323016.358166	3.494619E+16	0	0	9.508618	0.526428	0	0
0	0	0	27.995024	4.876154	17.101985	4.876154	2.224248E+10	2.838244E-7	3523305.492916	3.494618E+16	0	0	9.447207	0.52169	0	0
0	0	0	27.803696	4.878533	16.795022	4.878533	2.005696E+10	2.667163E-7	3749301.813981	3.494617E+16	0	0	9.38664	0.516928	0	0
0	0	0	27.613528	4.880671	16.490329	4.880671	1.809753E+10	2.501299E-7	3997922.871985	3.494617E+16	0	0	9.32749	0.512142	0	0
0	0	0	27.42323	4.883028	16.184831	4.883028	1.632837E+10	2.359103E-7	4238898.869864	3.494616E+16	0	0	9.273794	0.507531	0	0
0	0	0	27.231869	4.884958	15.878543	4.884958	1.472371E+10	2.209307E-7	4526305.94253	3.494616E+16	0	0	9.203082	0.503016	0	0
0	0	0	27.03881	4.887244	15.568654	4.887244	1.326455E+10	2.085605E-7	4794772.928933	3.494615E+16	0	0	9.134489	0.498525	0	0
0	0	0	26.845866	4.888873	15.260396	4.888873	1.195074E+10	1.945403E-7	5140323.644743	3.494615E+16	0	0	9.077517	0.49401	0	0
0	0	0	26.652104	4.89093	14.949754	4.89093	1.076231E+10	1.83366E-7	5453573.094333	3.494615E+16	0	0	9.013255	0.489535	0	0
0	0	0	26.456905	4.892575	14.63774	4.892575	9.684526E+9	1.714032E-7	5834195.197783	3.494614E+16	0	0	8.945675	0.485228	0	0
0	0	0	26.261216	4.89432	14.324637	4.89432	8.712371E+9	1.608078E-7	6218605.010475	3.494614E+16	0	0	8.864236	0.481103	0	0
0	0	0	26.062669	4.895895	14.007357	4.895895	7.825701E+9	1.502577E-7	6655234.446769	3.494614E+16	0	0	8.803357	0.47666	0	0
0	0	0	25.863991	4.89759	13.689499	4.89759	7.028771E+9	1.410697E-7	7088694.016099	3.494614E+16	0	0	8.734079	0.472313	0	0
0	0	0	25.665296	4.899159	13.37185	4.899159	6.312942E+9	1.322492E-7	7561484.728407	3.494613E+16	0	0	8.659301	0.468085	0	0
0	0	0	25.466193	4.900597	13.053816	4.900597	5.668762E+9	1.237171E-7	8082956.775085	3.494613E+16	0	0	8.580133	0.463929	0	0
0	0	0	25.264853	4.901756	12.732892	4.901756	5.084162E+9	1.148267E-7	8708773.776851	3.494613E+16	0	0	8.509922	0.459614	0	0
0	0	0	25.061568	4.903211	12.408081	4.903211	4.55506E+9	1.075825E-7	9295191.788613	3.494613E+16	0	0	8.438151	0.45553	0	0
0	0	0	24.858022	4.904458	12.083328	4.904458	4.080444E+9	1.003055E-7	9969539.874117	3.494613E+16	0	0	8.358997	0.45139	0	0
0	0	0	24.652598	4.905557	11.755936	4.905557	3.651572E+9	9.31126E-8	1.073968E+7	3.494613E+16	0	0	8.285895	0.447202	0	0
0	0	0	24.446095	4.906852	11.426265	4.906852	3.265872E+9	8.711027E-8	1.14797E+7	3.494613E+16	0	0	8.215193	0.443141	0	0
0	0	0	24.236489	4.907842	11.092447	4.907842	2.916015E+9	8.061206E-8	1.240509E+7	3.494613E+16	0	0	8.14325	0.438962	0	0
0	0	0	24.025952	4.908887	10.75696	4.908887	2.602326E+9	7.481639E-8	1.336606E+7	3.494612E+16	0	0	8.064235	0.434957	0	0
0	0	0	23.814059	4.9098	10.419637	4.9098	2.320681E+9	6.913584E-8	1.446428E+7	3.494612E+16	0	0	7.98277	0.430985	0	0
0	0	0	23.601333	4.91085	10.080576	4.91085	2.068586E+9	6.430348E-8	1.555126E+7	3.494612E+16	0	0	7.899512	0.427156	0	0
0	0	0	23.385487	4.911861	9.736636	4.911861	1.840769E+9	5.972212E-8	1.674421E+7	3.494612E+16	0	0	7.819008	0.423439	0	0
0	0	0	23.166685	4.912665	9.388555	4.912665	1.635426E+9	5.496861E-8	1.81922E+7	3.494612E+16	0	0	7.732658	0.41953	0	0
0	0	0	22.945922	4.913594	9.036978	4.913594	1.451451E+9	5.090251E-8	1.96454E+7	3.494612E+16	0	0	7.657301	0.415613	0	0
0	0	0	22.723935	4.914562	8.683306	4.914562	1.287319E+9	4.728322E-8	2.114915E+7	3.494612E+16	0	0	7.568823	0.411912	0	0
0	0	0	22.497961	4.915175	8.324306	4.915175	1.13929E+9	4.313811E-8	2.318136E+7	3.494612E+16	0	0	7.483458	0.408187	0	0
0	0	0	22.266157	4.916027	7.955355	4.916027	1.005109E+9	3.976764E-8	2.514608E+7	3.494612E+16	0	0	7.397935	0.404374	0	0
0	0	0	22.031085	4.916733	7.581625	4.916733	8.85167E+8	3.637367E-8	2.749242E+7	3.494612E+16	0	0	7.309967	0.400744	0	0
0	0	0	21.791929	4.91764	7.200798	4.91764	7.778189E+8	3.363272E-8	2.973295E+7	3.494612E+16	0	0	7.224095	0.397139	0	0
0	0	0	21.548233	4.918242	6.813656	4.918242	6.818136E+8	3.053899E-8	3.274502E+7	3.494612E+16	0	0	7.13766	0.393358	0	0
0	0	0	21.301449	4.91904	6.421003	4.91904	5.966616E+8	2.806092E-8	3.563675E+7	3.494612E+16	0	0	7.050967	0.3898	0	0
0	0	0	21.057034	4.919614	6.032733	4.919614	5.228132E+8	2.550478E-8	3.920834E+7	3.494612E+16	0	0	6.966795	0.386059	0	0
0	0	0	20.815821	4.920172	5.649544	4.920172	4.588985E+8	2.322826E-8	4.305101E+7	3.494612E+16	0	0	6.875244	0.382693	0	0
0	0	0	20.576943	4.920713	5.270068	4.920713	4.033064E+8	2.11873E-8	4.719809E+7	3.494612E+16	0	0	6.787209	0.37935	0	0
0	0	0	20.335011	4.921512	4.884924	4.921512	3.538641E+8	1.968933E-8	5.078893E+7	3.494612E+16	0	0	6.703994	0.375984	0	0
0	0	0	20.092621	4.921927	4.500223	4.921927	3.104063E+8	1.78199E-8	5.611703E+7	3.494612E+16	0	0	6.611237	0.37265	0	0
0	0	0	19.847536	4.922621	4.110344	4.922621	2.71889E+8	1.648363E-8	6.066626E+7	3.494612E+16	0	0	6.526863	0.369251	0	0
0	0	0	19.600638	4.922982	3.718632	4.922982	2.37918E+8	1.485688E-8	6.730888E+7	3.494612E+16	0	0	6.438348	0.365965	0	0
0	0	0	19.349591	4.923606	3.319482	4.923606	2.07725E+8	1.368047E-8	7.309688E+7	3.494612E+16	0	0	6.350798	0.36275	0	0
0	0	0	19.097989	4.92412	2.919775	4.92412	1.813092E+8	1.250433E-8	7.997228E+7	3.494612E+16	0	0	6.259564	0.359599	0	0
0	0	0	18.843397	4.924289	2.516451	4.924289	1.579971E+8	1.106886E-8	9.034354E+7	3.494612E+16	0	0	6.167619	0.356608	0	0
0	0	0	18.585963	4.924945	2.106991	4.924945	1.37471E+8	1.025873E-8	9.747797E+7	3.494612E+16	0	0	6.075295	0.353441	0	0
0	0	0	18.325099	4.925202	1.693412	4.925202	1.1939E+8	9.142895E-9	1.093745E+8	3.494612E+16	0	0	5.983309	0.350314	0	0
0	0	0	18.064578	4.925705	1.279522	4.925705	1.037063E+8	8.371209E-9	1.194571E+8	3.494612E+16	0	0	5.886346	0.347315	0	0
0	0	0	17.802717	4.926148	0.863688	4.926148	9.001771E+7	7.629423E-9	1.310715E+8	3.494612E+16	0	0	5.793317	0.344308	0	0
0	0	0	17.534993	4.926312	0.439516	4.926312	7.788862E+7	6.72593E-9	1.486783E+8	3.494612E+16	0	0	5.697659	0.341404	0	0
0	0	0	17.266892	4.926744	0.013801	4.926744	6.738013E+7	6.122563E-9	1.633303E+8	3.494612E+16	0	0	5.614909	0.338365	0	0
0	0	0	16.999478	4.927012	-0.410277	4.927012	5.831104E+7	5.475992E-9	1.826153E+8	3.494612E+16	0	0	5.528508	0.335429	0	0
0	0	0	16.728732	4.927378	-0.839995	4.927378	5.037179E+7	4.957503E-9	2.017144E+8	3.494612E+16	0	0	5.442039	0.332446	0	0
0	0	0	16.454163	4.927805	-1.276001	4.927805	4.342368E+7	4.526663E-9	2.209133E+8	3.494612E+16	0	0	5.346493	0.329503	0	0
0	0	0	16.179202	4.928034	-1.711941	4.928034	3.742604E+7	4.029895E-9	2.481454E+8	3.494612E+16	0	0	5.250527	0.326703	0	0
0	0	0	15.905025	4.928341	-2.146936	4.928341	3.227046E+7	3.634301E-9	2.751561E+8	3.494612E+16	0	0	5.144514	0.323847	0	0
0	0	0	15.627124	4.928756	-2.588248	4.928756	2.776911E+7	3.33518E-9	2.998339E+8	3.494612E+16	0	0	5.051804	0.321215	0	0
0	0	0	15.349419	4.929057	-3.02885	4.929057	2.389819E+7	3.015272E-9	3.31645E+8	3.494612E+16	0	0	4.953344	0.318455	0	0
0	0	0	15.071615	4.929029	-3.468392	4.929029	2.056577E+7	2.582953E-9	3.871538E+8	3.494612E+16	0	0	4.856624	0.315679	0	0
0	0	0	14.789402	4.929527	-3.916904	4.929527	1.765588E+7	2.418739E-9	4.134386E+8	3.494612E+16	0	0	4.761508	0.313022	0	0
0	0	0	14.50647	4.929631	-4.365079	4.929631	1.515183E+7	2.115793E-9	4.726359E+8	3.494612E+16	0	0	4.664812	0.31035	0	0
0	0	0	14.223096	4.93026	-4.815987	4.93026	1.299982E+7	2.055604E-9	4.864749E+8	3.494612E+16	0	0	4.565948	0.307622	0	0
0	0	0	13.940703	4.930052	-5.262127	4.930052	1.115937E+7	1.690627E-9	5.914967E+8	3.494612E+16	0	0	4.46381	0.305165	0	0
0	0	0	13.656072	4.930489	-5.71433	4.930489	9567901	1.589796E-9	6.290117E+8	3.494612E+16	0	0	4.361114	0.302509	0	0
0	0	0	13.372258	4.930675	-6.164272	4.930675	8207017	1.422163E-9	7.031541E+8	3.494612E+16	0	0	4.27138	0.2999	0	0
0	0	0	13.092544	4.930932	-6.608022	4.930932	7055318	1.299649E-9	7.694383E+8	3.494612E+16	0	0	4.166644	0.2973	0	0
0	0	0	12.805952	4.931042	-7.062079	4.931042	6042732	1.143801E-9	8.742783E+8	3.494612E+16	0	0	4.059919	0.294899	0	0
0	0	0	12.522155	4.931222	-7.512011	4.931222	5183294	1.027863E-9	9.728921E+8	3.494612E+16	0	0	3.956354	0.292378	0	0
0	0	0	12.238879	4.931413	-7.961172	4.931413	4447348	9.288565E-10	1.076593E+9	3.494612E+16	0	0	3.854343	0.289921	0	0
0	0	0	11.954722	4.931599	-8.41172	4.931599	3814075	8.400199E-10	1.190448E+9	3.494612E+16	0	0	3.752598	0.287409	0	0
0	0	0	11.672296	4.931938	-8.860177	4.931938	3274040	8.006767E-10	1.248944E+9	3.494612E+16	0	0	3.662015	0.284872	0	0
0	0	0	11.391226	4.932026	-9.305455	4.932026	2812528	7.0798E-10	1.412469E+9	3.494612E+16	0	0	3.556676	0.282511	0	0
0	0	0	11.111087	4.932206	-9.749658	4.932206	2417288	6.476558E-10	1.54403E+9	3.494612E+16	0	0	3.454509	0.280054	0	0
0	0	0	10.831634	4.932212	-10.192042	4.932212	2078361	5.579365E-10	1.792319E+9	3.494612E+16	0	0	3.35389	0.277812	0	0
0	0	0	10.55455	4.932441	-10.631639	4.932441	1789244	5.232747E-10	1.911042E+9	3.494612E+16	0	0	3.249793	0.275459	0	0
0	0	0	10.279507	4.932578	-11.067617	4.932578	1542047	4.763347E-10	2.099364E+9	3.494612E+16	0	0	3.151119	0.27317	0	0
0	0	0	10.005281	4.932622	-11.501905	4.932622	1329589	4.182311E-10	2.391022E+9	3.494612E+16	0	0	3.057402	0.270904	0	0
