Vload_(V)	ILoad_(A)	RsLoad (ohm)	SunsVoc_Voltage_(V)	SunsVoc_Current_(A)	Model_Voltage_(V)	Model_Current_(A)	Carrier_Density_(cm-3)	Lifetime_(s)	Inverse_Lifetime_(s-1)	Efficiency_(%)	Intensity_(suns)	Dark_IV_Voltage_(V)	Dark_IV_Current_(A)
5.847171	10.91681	0	49.403529	-1.703669	49.746326	-1.703669	1.669261E+15	9.139406E-5	10937.004674	20.10538	1.14205	0	0
5.877477	10.918311	0.95519	49.352777	-1.283063	49.610837	-1.283063	1.627917E+15	9.220331E-5	10841.198817	20.057455	1.14054	0	0
6.258725	10.915535	1.567736	49.242143	-0.557297	49.354129	-0.557297	1.541047E+15	9.280398E-5	10771.458186	20.055775	1.137726	0	0
12.149592	10.881114	2.266989	49.109473	0.235008	49.0623	0.235008	1.442541E+15	9.33154E-5	10712.889956	20.05561	1.13613	0	0
18.317304	10.870926	1.770791	48.971707	0.994698	48.772268	0.994698	1.34647E+15	9.376966E-5	10661.420187	20.109494	1.135633	0	0
24.414768	10.844655	1.325799	48.832911	1.697591	48.492928	1.697591	1.255747E+15	9.411904E-5	10622.225008	20.078718	1.135415	0	0
30.520384	10.831085	0.804105	48.697938	2.331046	48.231606	2.331046	1.17304E+15	9.440682E-5	10590.170808	20.04133	1.134892	0	0
36.6339	10.816286	0.275987	48.569123	2.89139	47.991304	2.89139	1.098905E+15	9.461547E-5	10567.091048	20.04643	1.132574	0	0
37.414021	10.809173	0.219033	48.441648	3.415762	47.759752	3.415762	1.029909E+15	9.487386E-5	10538.550532	20.03131	1.129567	0	0
38.196517	10.783543	0.19345	48.313176	3.91084	47.533272	3.91084	9.645337E+14	9.513028E-5	10510.355767	20.065885	1.125183	0	0
38.982841	10.732128	0.189678	48.184671	4.370154	47.314092	4.370154	9.030943E+14	9.531982E-5	10489.643574	20.025291	1.120654	0	0
39.777179	10.654477	0.188355	48.057196	4.792499	47.103483	4.792499	8.45839E+14	9.543334E-5	10477.330826	20.028411	1.116713	0	0
40.543045	10.540333	0.190045	47.93039	5.184123	46.899823	5.184123	7.923318E+14	9.550333E-5	10469.797296	20.0521	1.112846	0	0
41.310586	10.374772	0.191917	47.804515	5.552468	46.701871	5.552468	7.424299E+14	9.563319E-5	10455.705826	20.019552	1.1097	0	0
42.057159	10.143321	0.193299	47.67851	5.894114	46.509238	5.894114	6.955033E+14	9.568237E-5	10450.442681	20.037984	1.105052	0	0
42.816595	9.816489	0.193518	47.55484	6.208416	46.324478	6.208416	6.522274E+14	9.57185E-5	10446.595078	19.991789	1.099999	0	0
43.570568	9.378412	0.192485	47.432086	6.503908	46.144474	6.503908	6.118437E+14	9.580449E-5	10437.30263	20.007414	1.094363	0	0
44.306289	8.805754	0.191107	47.308187	6.781524	45.966993	6.781524	5.735369E+14	9.583529E-5	10434.023192	20.030752	1.088463	0	0
45.024607	8.082787	0.189976	47.185106	7.039584	45.794297	7.039584	5.377852E+14	9.584233E-5	10433.322893	20.004873	1.083172	0	0
45.735056	7.187147	0.188741	47.062449	7.277271	45.626145	7.277271	5.043103E+14	9.574611E-5	10443.86623	20.021862	1.077781	0	0
46.414053	6.147741	0.186418	46.941998	7.500069	45.463203	7.500069	4.734106E+14	9.574049E-5	10444.530093	20.00158	1.072377	0	0
47.077669	4.947615	0.182946	46.82184	7.705433	45.304074	7.705433	4.444244E+14	9.562605E-5	10457.073443	20.005995	1.067291	0	0
47.695257	3.658973	0.185983	46.701731	7.897438	45.147702	7.897438	4.171808E+14	9.547231E-5	10473.952528	20.024986	1.061093	0	0
48.265258	2.330031	0.195204	46.581509	8.07535	44.994063	8.07535	3.915455E+14	9.521611E-5	10502.170483	19.985306	1.055199	0	0
48.737179	1.134419	0.209948	46.466023	8.239302	44.84791	8.239302	3.683729E+14	9.506628E-5	10518.751854	20.014237	1.048776	0	0
41.254555	10.391183	0.191092	46.351566	8.392652	44.704913	8.392652	3.467325E+14	9.491778E-5	10535.23463	20.00214	1.042769	0	0
49.186529	0	0	46.239461	8.534483	44.566551	8.534483	3.267459E+14	9.477165E-5	10551.501888	20.002442	1.03718	0	0
0	0	0	46.126034	8.668253	44.428516	8.668253	3.076744E+14	9.454903E-5	10576.365431	20.021781	1.031313	0	0
0	0	0	46.014256	8.794354	44.293657	8.794354	2.899508E+14	9.439635E-5	10593.490391	19.980889	1.025565	0	0
0	0	0	45.903932	8.911676	44.161992	8.911676	2.734427E+14	9.423073E-5	10612.125504	20.009345	1.019525	0	0
0	0	0	45.793999	9.022151	44.032094	9.022151	2.579139E+14	9.406178E-5	10631.200656	20.000846	1.0133	0	0
0	0	0	45.684508	9.12613	43.903937	9.12613	2.433111E+14	9.388875E-5	10650.805002	19.988353	1.007373	0	0
0	0	0	45.575426	9.223144	43.777577	9.223144	2.295738E+14	9.366214E-5	10676.585513	20.010071	1.001115	0	0
0	0	0	45.4668	9.314919	43.652723	9.314919	2.166547E+14	9.345549E-5	10700.203538	19.984803	0.995261	0	0
0	0	0	45.358796	9.401035	43.529614	9.401035	2.045214E+14	9.323385E-5	10725.64887	20.001854	0.989626	0	0
0	0	0	45.251543	9.481685	43.408338	9.481685	1.931372E+14	9.299205E-5	10753.545215	20.012139	0.983685	0	0
0	0	0	45.143881	9.557663	43.287595	9.557663	1.823399E+14	9.270111E-5	10787.302485	19.978843	0.978222	0	0
0	0	0	45.037281	9.628977	43.168829	9.628977	1.722376E+14	9.241403E-5	10820.819049	20.01489	0.972196	0	0
0	0	0	44.932331	9.695627	43.052616	9.695627	1.628332E+14	9.213649E-5	10853.419274	19.985311	0.966461	0	0
0	0	0	44.827348	9.759223	42.936986	9.759223	1.539348E+14	9.188668E-5	10882.931074	19.991925	0.960726	0	0
0	0	0	44.723542	9.818315	42.823406	9.818315	1.4561E+14	9.159308E-5	10917.820642	20.015275	0.954726	0	0
0	0	0	44.621712	9.873827	42.712482	9.873827	1.378776E+14	9.134528E-5	10947.441985	19.975649	0.949283	0	0
0	0	0	44.519898	9.926127	42.602214	9.926127	1.305537E+14	9.105923E-5	10981.834667	20.006586	0.943554	0	0
0	0	0	44.419129	9.97486	42.493681	9.97486	1.236852E+14	9.073178E-5	11021.470766	19.997998	0.937647	0	0
0	0	0	44.318426	10.020885	42.38575	10.020885	1.171796E+14	9.037535E-5	11064.940731	19.978161	0.93227	0	0
0	0	0	44.219406	10.064267	42.279998	10.064267	1.111142E+14	9.005803E-5	11103.930485	20.006268	0.926191	0	0
0	0	0	44.119716	10.105679	42.173981	10.105679	1.053228E+14	8.972235E-5	11145.476498	19.975163	0.920661	0	0
0	0	0	44.021201	10.144692	42.069595	10.144692	9.989443E+13	8.939786E-5	11185.933916	19.983753	0.915152	0	0
0	0	0	43.923716	10.181512	41.966656	10.181512	9.479666E+13	8.908394E-5	11225.352988	19.998255	0.909317	0	0
0	0	0	43.827309	10.217322	41.864982	10.217322	9.000973E+13	8.891574E-5	11246.589464	19.962431	0.904238	0	0
0	0	0	43.731703	10.250233	41.764663	10.250233	8.550004E+13	8.8631E-5	11282.721483	20.000412	0.898715	0	0
0	0	0	43.6367	10.280933	41.665373	10.280933	8.124157E+13	8.828248E-5	11327.26469	19.980434	0.893457	0	0
0	0	0	43.54111	10.310108	41.565806	10.310108	7.716976E+13	8.789038E-5	11377.799211	19.972656	0.888232	0	0
0	0	0	43.446663	10.337794	41.467657	10.337794	7.334622E+13	8.752986E-5	11424.663302	19.999311	0.882815	0	0
0	0	0	43.352755	10.364071	41.370316	10.364071	6.973153E+13	8.717225E-5	11471.532055	19.97701	0.877504	0	0
0	0	0	43.257982	10.388987	41.272393	10.388987	6.626336E+13	8.674697E-5	11527.772308	19.968275	0.87259	0	0
0	0	0	43.163355	10.412664	41.174858	10.412664	6.2972E+13	8.630987E-5	11586.153875	19.994759	0.867008	0	0
0	0	0	43.068811	10.435048	41.077657	10.435048	5.984614E+13	8.583673E-5	11650.018724	19.957349	0.862107	0	0
0	0	0	42.972028	10.456593	40.978425	10.456593	5.680638E+13	8.529113E-5	11724.542825	19.983529	0.856823	0	0
0	0	0	42.878104	10.477019	40.882221	10.477019	5.400361E+13	8.484891E-5	11785.650352	19.969033	0.851571	0	0
0	0	0	42.782089	10.496546	40.78414	10.496546	5.128087E+13	8.431448E-5	11860.354391	19.957797	0.846545	0	0
0	0	0	42.689406	10.514828	40.689577	10.514828	4.878252E+13	8.385457E-5	11925.404411	19.983012	0.841207	0	0
0	0	0	42.596054	10.532677	40.594444	10.532677	4.638879E+13	8.344505E-5	11983.930663	19.958562	0.836095	0	0
0	0	0	42.502668	10.549607	40.499458	10.549607	4.411141E+13	8.300696E-5	12047.179405	19.962509	0.831228	0	0
0	0	0	42.410116	10.565496	40.405494	10.565496	4.196439E+13	8.253825E-5	12115.591269	19.982265	0.825897	0	0
0	0	0	42.315147	10.580676	40.309294	10.580676	3.986961E+13	8.195931E-5	12201.173946	19.944224	0.821228	0	0
0	0	0	42.222872	10.595269	40.215857	10.595269	3.793424E+13	8.151994E-5	12266.934496	19.964986	0.816255	0	0
0	0	0	42.129912	10.608923	40.121929	10.608923	3.607925E+13	8.097211E-5	12349.929947	19.965589	0.811169	0	0
0	0	0	42.037115	10.622062	40.028263	10.622062	3.431781E+13	8.04522E-5	12429.739287	19.940482	0.806613	0	0
0	0	0	41.94471	10.634627	39.935094	10.634627	3.264908E+13	7.994823E-5	12508.093194	19.968283	0.80154	0	0
0	0	0	41.851815	10.64687	39.841509	10.64687	3.105314E+13	7.948905E-5	12580.347566	19.950761	0.796825	0	0
0	0	0	41.759688	10.658232	39.748848	10.658232	2.95473E+13	7.895786E-5	12664.981575	19.94073	0.792335	0	0
0	0	0	41.666727	10.66894	39.655495	10.66894	2.810171E+13	7.833885E-5	12765.056791	19.956132	0.787587	0	0
0	0	0	41.574436	10.6792	39.562888	10.6792	2.67364E+13	7.775127E-5	12861.525035	19.934838	0.782978	0	0
0	0	0	41.482472	10.689267	39.470641	10.689267	2.544179E+13	7.725959E-5	12943.375866	19.936193	0.77872	0	0
0	0	0	41.388973	10.698718	39.377004	10.698718	2.418972E+13	7.664095E-5	13047.853935	19.953987	0.773945	0	0
0	0	0	41.295964	10.707669	39.283946	10.707669	2.300527E+13	7.60075E-5	13156.595725	19.917696	0.7698	0	0
0	0	0	41.203559	10.716324	39.19154	10.716324	2.188587E+13	7.543089E-5	13257.167427	19.952116	0.765124	0	0
0	0	0	41.111366	10.724881	39.099364	10.724881	2.082326E+13	7.496832E-5	13338.966827	19.932524	0.760767	0	0
0	0	0	41.018601	10.73264	39.006778	10.73264	1.980606E+13	7.431012E-5	13457.115951	19.916024	0.756595	0	0
0	0	0	40.925559	10.740151	38.913968	10.740151	1.883567E+13	7.367384E-5	13573.338292	19.934891	0.752158	0	0
0	0	0	40.833481	10.747195	38.822194	10.747195	1.792209E+13	7.301203E-5	13696.371907	19.917451	0.747741	0	0
0	0	0	40.740227	10.754419	38.729234	10.754419	1.704195E+13	7.251494E-5	13790.260989	19.915145	0.743655	0	0
0	0	0	40.647037	10.760877	38.636483	10.760877	1.620556E+13	7.181141E-5	13925.362701	19.929624	0.739185	0	0
0	0	0	40.553342	10.767003	38.543299	10.767003	1.540597E+13	7.105995E-5	14072.623988	19.902157	0.735066	0	0
0	0	0	40.459451	10.773292	38.449893	10.773292	1.464424E+13	7.050667E-5	14183.055596	19.911138	0.731006	0	0
0	0	0	40.364791	10.778941	38.355855	10.778941	1.391437E+13	6.973748E-5	14339.491684	19.922631	0.72645	0	0
0	0	0	40.270834	10.784603	38.262506	10.784603	1.322586E+13	6.91254E-5	14466.462225	19.885994	0.722662	0	0
0	0	0	40.17709	10.789731	38.169466	10.789731	1.257284E+13	6.836423E-5	14627.53315	19.909671	0.718384	0	0
0	0	0	40.082104	10.794762	38.075227	10.794762	1.194402E+13	6.76219E-5	14788.109209	19.898643	0.714206	0	0
0	0	0	39.987592	10.799706	37.981471	10.799706	1.134954E+13	6.696925E-5	14932.22648	19.875784	0.710252	0	0
0	0	0	39.893145	10.804295	37.887846	10.804295	1.0785E+13	6.623383E-5	15098.025201	19.9035	0.70616	0	0
0	0	0	39.798306	10.80863	37.793885	10.80863	1.024636E+13	6.544713E-5	15279.507699	19.893214	0.701835	0	0
0	0	0	39.702912	10.812819	37.699407	10.812819	9.731681E+12	6.466348E-5	15464.680474	19.863853	0.698219	0	0
0	0	0	39.606407	10.817231	37.603798	10.817231	9.237295E+12	6.409782E-5	15601.155128	19.896856	0.693796	0	0
0	0	0	39.508807	10.820928	37.507248	10.820928	8.762828E+12	6.315001E-5	15835.310532	19.862787	0.690061	0	0
0	0	0	39.411045	10.824894	37.410488	10.824894	8.311985E+12	6.248593E-5	16003.603048	19.864755	0.686154	0	0
0	0	0	39.312432	10.828371	37.312986	10.828371	7.880709E+12	6.157314E-5	16240.847022	19.878973	0.682081	0	0
0	0	0	39.210194	10.83199	37.211897	10.83199	7.457174E+12	6.074942E-5	16461.063238	19.848353	0.67826	0	0
0	0	0	39.110177	10.835203	37.113065	10.835203	7.064866E+12	5.981984E-5	16716.862197	19.861237	0.674538	0	0
0	0	0	39.008429	10.838298	37.012556	10.838298	6.686929E+12	5.885172E-5	16991.855459	19.856999	0.670525	0	0
0	0	0	38.90851	10.841521	36.913822	10.841521	6.335462E+12	5.81453E-5	17198.295788	19.822016	0.666923	0	0
0	0	0	38.807137	10.844353	36.813732	10.844353	5.997747E+12	5.719744E-5	17483.299926	19.847664	0.663022	0	0
0	0	0	38.705307	10.847311	36.713171	10.847311	5.676625E+12	5.643875E-5	17718.323304	19.835876	0.659148	0	0
0	0	0	38.600847	10.850088	36.610062	10.850088	5.36506E+12	5.556131E-5	17998.135315	19.813172	0.655671	0	0
0	0	0	38.496991	10.852374	36.507636	10.852374	5.072246E+12	5.439261E-5	18384.850236	19.843575	0.651804	0	0
0	0	0	38.3924	10.855098	36.40441	10.855098	4.793504E+12	5.36728E-5	18631.410946	19.810882	0.648235	0	0
0	0	0	38.286438	10.857539	36.299888	10.857539	4.526718E+12	5.277267E-5	18949.201403	19.809993	0.644659	0	0
0	0	0	38.179658	10.859658	36.194624	10.859658	4.27289E+12	5.166081E-5	19357.032185	19.821857	0.640864	0	0
0	0	0	38.072176	10.861915	36.088646	10.861915	4.03176E+12	5.074892E-5	19704.851725	19.798412	0.637341	0	0
0	0	0	37.963012	10.864158	35.981018	10.864158	3.800778E+12	4.987992E-5	20048.146558	19.80142	0.633957	0	0
0	0	0	37.853014	10.866148	35.872619	10.866148	3.581412E+12	4.884704E-5	20472.07073	19.81046	0.630116	0	0
0	0	0	37.741139	10.86812	35.762379	10.86812	3.37128E+12	4.784345E-5	20901.500769	19.769029	0.62701	0	0
0	0	0	37.627515	10.870044	35.650433	10.870044	3.170479E+12	4.684456E-5	21347.194542	19.795826	0.623428	0	0
0	0	0	37.512258	10.871792	35.536914	10.871792	2.979004E+12	4.572511E-5	21869.820553	19.789537	0.619765	0	0
0	0	0	37.396053	10.873611	35.422453	10.873611	2.797658E+12	4.474989E-5	22346.425973	19.756499	0.616461	0	0
0	0	0	37.278754	10.875375	35.306927	10.875375	2.625796E+12	4.378876E-5	22836.909715	19.773714	0.612984	0	0
0	0	0	37.159887	10.876927	35.189901	10.876927	2.462402E+12	4.266127E-5	23440.46611	19.767384	0.609382	0	0
0	0	0	37.040023	10.878477	35.071896	10.878477	2.30793E+12	4.160229E-5	24037.136792	19.744726	0.606091	0	0
0	0	0	36.917481	10.880214	34.951228	10.880214	2.160018E+12	4.078448E-5	24519.13311	19.769017	0.602468	0	0
0	0	0	36.79355	10.88153	34.829272	10.88153	2.020067E+12	3.956412E-5	25275.427334	19.746422	0.599078	0	0
0	0	0	36.666172	10.882846	34.703933	10.882846	1.885667E+12	3.836254E-5	26067.094847	19.731933	0.595819	0	0
0	0	0	36.53708	10.883943	34.576948	10.883943	1.758577E+12	3.697203E-5	27047.476665	19.751715	0.592296	0	0
0	0	0	36.406027	10.885733	34.447914	10.885733	1.638315E+12	3.642676E-5	27452.344662	19.715304	0.588998	0	0
0	0	0	36.273357	10.886714	34.317438	10.886714	1.524942E+12	3.501167E-5	28561.901223	19.721147	0.585787	0	0
0	0	0	36.138449	10.887954	34.184719	10.887954	1.417699E+12	3.394815E-5	29456.689961	19.730454	0.582244	0	0
0	0	0	36.000422	10.889049	34.048961	10.889049	1.315776E+12	3.275002E-5	30534.332319	19.709137	0.578906	0	0
0	0	0	35.858359	10.890468	33.909184	10.890468	1.21852E+12	3.196359E-5	31285.596158	19.703628	0.57578	0	0
0	0	0	35.714696	10.891521	33.7679	10.891521	1.127476E+12	3.080609E-5	32461.11533	19.72518	0.572238	0	0
0	0	0	35.567162	10.892459	33.622836	10.892459	1.041053E+12	2.954054E-5	33851.788224	19.676566	0.56931	0	0
0	0	0	35.414547	10.89324	33.47281	10.89324	9.586181E+11	2.810337E-5	35582.92222	19.693127	0.565966	0	0
0	0	0	35.256983	10.894697	33.317804	10.894697	8.803521E+11	2.750826E-5	36352.7144	19.684236	0.562715	0	0
0	0	0	35.100971	10.895374	33.164461	10.895374	8.091542E+11	2.60828E-5	38339.448096	19.668688	0.559635	0	0
0	0	0	34.939095	10.896389	33.005299	10.896389	7.413604E+11	2.508546E-5	39863.73532	19.671762	0.556576	0	0
0	0	0	34.773511	10.897265	32.842521	10.897265	6.778862E+11	2.396559E-5	41726.493224	19.675752	0.553179	0	0
0	0	0	34.605444	10.898086	32.677315	10.898086	6.190151E+11	2.284391E-5	43775.342043	19.642054	0.550483	0	0
0	0	0	34.433832	10.899196	32.508577	10.899196	5.641744E+11	2.213179E-5	45183.868115	19.664883	0.54708	0	0
0	0	0	34.257598	10.899607	32.335422	10.899607	5.129087E+11	2.060121E-5	48540.839242	19.639267	0.544133	0	0
0	0	0	34.075761	10.9005	32.156681	10.9005	4.648913E+11	1.969475E-5	50774.958468	19.633296	0.541272	0	0
0	0	0	33.890134	10.901362	31.974223	10.901362	4.205067E+11	1.880899E-5	53166.069971	19.649247	0.53804	0	0
0	0	0	33.698235	10.901923	31.785659	10.901923	3.79072E+11	1.75944E-5	56836.26937	19.626372	0.53508	0	0
0	0	0	33.502709	10.902514	31.593528	10.902514	3.410508E+11	1.648358E-5	60666.422554	19.609945	0.532358	0	0
0	0	0	33.303835	10.903363	31.398064	10.903363	3.062882E+11	1.573829E-5	63539.295887	19.632252	0.529226	0	0
0	0	0	33.099701	10.904019	31.197469	10.904019	2.742878E+11	1.481718E-5	67489.224109	19.59664	0.526358	0	0
0	0	0	32.887857	10.904482	30.989335	10.904482	2.446091E+11	1.371048E-5	72936.917939	19.591589	0.523623	0	0
0	0	0	32.673808	10.904927	30.77904	10.904927	2.178818E+11	1.266927E-5	78931.169093	19.613946	0.520438	0	0
0	0	0	32.453323	10.905745	30.562359	10.905745	1.934008E+11	1.207689E-5	82802.803737	19.567352	0.517915	0	0
0	0	0	32.229555	10.906153	30.342526	10.906153	1.71366E+11	1.111057E-5	90004.355504	19.589082	0.514948	0	0
0	0	0	31.997048	10.906627	30.114098	10.906627	1.511261E+11	1.025453E-5	97517.830483	19.580545	0.511995	0	0
0	0	0	31.758023	10.907288	29.879239	10.907288	1.328079E+11	9.636839E-6	103768.462704	19.553918	0.509227	0	0
0	0	0	31.512513	10.907605	29.638069	10.907605	1.163017E+11	8.729749E-6	114550.829692	19.562192	0.506571	0	0
0	0	0	31.266154	10.908012	29.396051	10.908012	1.018002E+11	7.994698E-6	125082.891675	19.567314	0.503439	0	0
0	0	0	31.011187	10.908424	29.145578	10.908424	8.869314E+10	7.308255E-6	136831.57096	19.525132	0.500916	0	0
0	0	0	30.754341	10.908927	28.893244	10.908927	7.719524E+10	6.766605E-6	147784.600046	19.54579	0.498095	0	0
0	0	0	30.492007	10.909382	28.63553	10.909382	6.698883E+10	6.231208E-6	160482.52073	19.54022	0.495201	0	0
0	0	0	30.225834	10.909734	28.374063	10.909734	5.801137E+10	5.664418E-6	176540.648817	19.504034	0.492691	0	0
0	0	0	29.954875	10.909989	28.107912	10.909989	5.01072E+10	5.075681E-6	197017.907652	19.519379	0.489883	0	0
0	0	0	29.682626	10.910623	27.840431	10.910623	4.324981E+10	4.830357E-6	207024.016604	19.51569	0.487035	0	0
0	0	0	29.409413	10.910993	27.572048	10.910993	3.731144E+10	4.431576E-6	225653.332181	19.488123	0.484532	0	0
0	0	0	29.135023	10.911127	27.30255	10.911127	3.216797E+10	3.910746E-6	255705.665048	19.501756	0.481804	0	0
0	0	0	28.860275	10.911417	27.032673	10.911417	2.772815E+10	3.552492E-6	281492.521691	19.497395	0.478923	0	0
0	0	0	28.587715	10.911936	26.764907	10.911936	2.392941E+10	3.392356E-6	294780.410773	19.462605	0.476579	0	0
0	0	0	28.31509	10.912184	26.497123	10.912184	2.065036E+10	3.084408E-6	324211.273395	19.483157	0.473692	0	0
0	0	0	28.039067	10.912342	26.226018	10.912342	1.778795E+10	2.750504E-6	363569.718177	19.45541	0.471149	0	0
0	0	0	27.759222	10.912469	25.951164	10.912469	1.529067E+10	2.433666E-6	410902.674237	19.440072	0.468692	0	0
0	0	0	27.485928	10.912777	25.682713	10.912777	1.319061E+10	2.259657E-6	442545.031626	19.458794	0.466016	0	0
0	0	0	27.214348	10.913121	25.41594	10.913121	1.138954E+10	2.132983E-6	468826.902287	19.438765	0.463381	0	0
0	0	0	26.94401	10.91323	25.150426	10.91323	9.840988E+9	1.89902E-6	526587.436046	19.409574	0.461189	0	0
0	0	0	26.676465	10.913459	24.887636	10.913459	8.515831E+9	1.755742E-6	569559.791096	19.447505	0.458229	0	0
0	0	0	26.408609	10.913682	24.624542	10.913682	7.36788E+9	1.627469E-6	614451.058837	19.403261	0.455984	0	0
0	0	0	26.142992	10.913929	24.363642	10.913929	6.382391E+9	1.530798E-6	653254.044187	19.40195	0.453461	0	0
0	0	0	25.879155	10.91399	24.104521	10.91399	5.534039E+9	1.355791E-6	737576.976065	19.406427	0.450938	0	0
0	0	0	25.6195	10.913954	23.849522	10.913954	4.809311E+9	1.163414E-6	859539.041583	19.374428	0.448514	0	0
0	0	0	25.360563	10.914623	23.595115	10.914623	4.181115E+9	1.320732E-6	757155.667376	19.378477	0.446183	0	0
0	0	0	25.10553	10.914701	23.344639	10.914701	3.642655E+9	1.193454E-6	837904.009527	19.393811	0.443415	0	0
0	0	0	24.854565	10.914581	23.098188	10.914581	3.180525E+9	9.857863E-7	1014418.693475	19.346442	0.441289	0	0
0	0	0	24.606834	10.914846	22.854852	10.914846	2.781883E+9	9.786404E-7	1021825.813446	19.355655	0.438806	0	0
0	0	0	24.361422	10.914985	22.613815	10.914985	2.436259E+9	9.221519E-7	1084420.082823	19.357172	0.436263	0	0
0	0	0	24.117628	10.915208	22.374352	10.915208	2.135441E+9	9.207611E-7	1086058.061861	19.316362	0.43413	0	0
0	0	0	23.879322	10.915334	22.140295	10.915334	1.877329E+9	8.788931E-7	1137794.747197	19.343474	0.4317	0	0
0	0	0	23.646749	10.915569	21.911852	10.915569	1.655538E+9	9.218442E-7	1084781.987719	19.334266	0.429236	0	0
