Vload_(V)	ILoad_(A)	RsLoad_(ohm)	SunsVoc_Voltage_(V)	SunsVoc_Current_(A)	Model_Voltage_(V)	Model_Current_(A)	Carrier_Density_(cm-3)	Lifetime_(s)	Inverse_Lifetime_(s-1)	(Carrier_Density+Doping)/qWni^2_(cm^2/C)	Carrier_Density_at_Vmp_(cm-3)	Lifetime_at_Vmp_(s)	Efficiency_(%)	Intensity_(suns)	Dark_IV_Voltage_(V)	Dark_IV_Current_(A)
5.925264	10.428112	0	47.659468	-0.891976	47.897221	-0.891976	6.886832E+14	4.203774E-5	23787.358419	7.781258E+16	2.289687E+13	3.081503E-5	18.265971	1.139924	0	0
5.98333	10.429081	-0.570823	47.549189	-0.291065	47.626379	-0.291065	6.503309E+14	4.192207E-5	23853.08321	7.763271E+16	0	0	18.223599	1.138898	0	0
6.310891	10.427445	0.555942	47.430521	0.320741	47.345928	0.320741	6.113618E+14	4.179552E-5	23925.386733	7.744995E+16	0	0	18.209679	1.133969	0	0
10.939577	10.38174	2.342826	47.312108	0.907839	47.073988	0.907839	5.747286E+14	4.171412E-5	23972.147477	7.727814E+16	0	0	18.240905	1.130172	0	0
16.356929	10.336967	2.021202	47.194401	1.450266	46.816097	1.450266	5.404228E+14	4.159405E-5	24041.414153	7.711726E+16	0	0	18.208352	1.126721	0	0
21.741809	10.313118	1.56181	47.080085	1.956231	46.572537	1.956231	5.090096E+14	4.151604E-5	24086.647931	7.696993E+16	0	0	18.206258	1.121521	0	0
27.134906	10.282713	1.098367	46.967043	2.428672	46.340281	2.428672	4.796931E+14	4.14356E-5	24133.456583	7.683244E+16	0	0	18.214832	1.113653	0	0
32.506805	10.253908	0.619826	46.85451	2.856808	46.121196	2.856808	4.521422E+14	4.126426E-5	24233.704765	7.670323E+16	0	0	18.207511	1.105237	0	0
33.311599	10.247621	0.549871	46.740899	3.267544	45.9067	3.267544	4.258927E+14	4.109817E-5	24331.685357	7.658012E+16	0	0	18.211016	1.097997	0	0
34.090464	10.241709	0.481537	46.629523	3.65454	45.701508	3.65454	4.016047E+14	4.096856E-5	24408.690784	7.646622E+16	0	0	18.184116	1.089783	0	0
34.88074	10.239381	0.407229	46.5175	4.017506	45.502827	4.017506	3.785418E+14	4.080228E-5	24508.196268	7.635805E+16	0	0	18.183218	1.07982	0	0
35.644298	10.230328	0.34375	46.406791	4.358594	45.311879	4.358594	3.570235E+14	4.064549E-5	24602.765648	7.625714E+16	0	0	18.191228	1.069416	0	0
36.398762	10.227703	0.273151	46.295905	4.684932	45.125376	4.684932	3.366727E+14	4.050655E-5	24687.179193	7.616169E+16	0	0	18.190238	1.05958	0	0
37.151709	10.211097	0.217865	46.185038	4.989943	44.945077	4.989943	3.174634E+14	4.033766E-5	24790.562093	7.60716E+16	0	0	18.200859	1.05017	0	0
37.897335	10.171335	0.183189	46.075622	5.275943	44.771661	5.275943	2.995612E+14	4.017587E-5	24890.415533	7.598765E+16	0	0	18.197847	1.03996	0	0
38.656956	10.077614	0.178553	45.965795	5.547048	44.602289	5.547048	2.825898E+14	4.000476E-5	24996.89312	7.590805E+16	0	0	18.201309	1.029282	0	0
39.404513	9.917387	0.188336	45.854889	5.803211	44.436298	5.803211	2.664117E+14	3.980344E-5	25123.338432	7.583218E+16	0	0	18.20433	1.019164	0	0
40.150255	9.680404	0.198724	45.747963	6.039521	44.279513	6.039521	2.516785E+14	3.962696E-5	25235.242194	7.576308E+16	0	0	18.188307	1.009471	0	0
40.878876	9.363714	0.207285	45.641644	6.262563	44.127116	6.262563	2.378253E+14	3.945078E-5	25347.947507	7.569811E+16	0	0	18.184761	0.999643	0	0
41.609247	8.937897	0.213635	45.534933	6.474609	43.977585	6.474609	2.246774E+14	3.926875E-5	25465.460439	7.563645E+16	0	0	18.185025	0.989529	0	0
42.335646	8.395782	0.217208	45.42781	6.676409	43.830681	6.676409	2.122004E+14	3.908296E-5	25586.521568	7.557793E+16	0	0	18.185403	0.979542	0	0
43.042695	7.738607	0.219263	45.320296	6.867503	43.686494	6.867503	2.00366E+14	3.888386E-5	25717.54169	7.552243E+16	0	0	18.19701	0.969977	0	0
43.735357	6.969268	0.217933	45.214114	7.049209	43.546249	7.049209	1.893188E+14	3.871576E-5	25829.217928	7.547062E+16	0	0	18.200854	0.960479	0	0
44.440812	6.106296	0.206996	45.109638	7.220074	43.410582	7.220074	1.790372E+14	3.856324E-5	25931.37888	7.54224E+16	0	0	18.203158	0.950353	0	0
45.057393	5.118106	0.208068	45.00771	7.37678	43.280985	7.37678	1.695392E+14	3.839285E-5	26046.469242	7.537786E+16	0	0	18.202469	0.94045	0	0
45.686353	4.010693	0.204748	44.905389	7.524578	43.153496	7.524578	1.605064E+14	3.819753E-5	26179.658272	7.53355E+16	0	0	18.196883	0.930729	0	0
46.277379	2.835179	0.207833	44.802324	7.664417	43.027546	7.664417	1.518899E+14	3.797593E-5	26332.428522	7.529509E+16	0	0	18.185568	0.920914	0	0
46.839778	1.600234	0.214144	44.700671	7.797474	42.904788	7.797474	1.438405E+14	3.778243E-5	26467.292967	7.525734E+16	0	0	18.18611	0.9113	0	0
39.090997	9.985177	0.187654	44.600075	7.92352	42.784922	7.92352	1.362915E+14	3.760119E-5	26594.869021	7.522193E+16	0	0	18.194985	0.902244	0	0
47.494306	0	0	44.499461	8.042992	42.666848	8.042992	1.291342E+14	3.741112E-5	26729.992878	7.518836E+16	0	0	18.203231	0.893327	0	0
0	0	0	44.39716	8.156483	42.548905	8.156483	1.222393E+14	3.718289E-5	26894.06439	7.515603E+16	0	0	18.214859	0.884596	0	0
0	0	0	44.297859	8.263868	42.435319	8.263868	1.158963E+14	3.700269E-5	27025.041095	7.512628E+16	0	0	18.210801	0.876052	0	0
0	0	0	44.199439	8.36474	42.324245	8.36474	1.099323E+14	3.68144E-5	27163.267312	7.509831E+16	0	0	18.201096	0.867572	0	0
0	0	0	44.101275	8.460639	42.214752	8.460639	1.042875E+14	3.662633E-5	27302.746148	7.507184E+16	0	0	18.193569	0.85912	0	0
0	0	0	44.004796	8.551056	42.108214	8.551056	9.902043E+13	3.645167E-5	27433.569484	7.504713E+16	0	0	18.196906	0.850859	0	0
0	0	0	43.906749	8.636028	42.001689	8.636028	9.393862E+13	3.62206E-5	27608.582966	7.50233E+16	0	0	18.198622	0.842792	0	0
0	0	0	43.811897	8.716853	41.899132	8.716853	8.926938E+13	3.604595E-5	27742.354287	7.50014E+16	0	0	18.204729	0.834789	0	0
0	0	0	43.717574	8.793112	41.798232	8.793112	8.485514E+13	3.586164E-5	27884.938444	7.49807E+16	0	0	18.208149	0.826874	0	0
0	0	0	43.623388	8.865303	41.698513	8.865303	8.066405E+13	3.566514E-5	28038.574935	7.496105E+16	0	0	18.19541	0.819006	0	0
0	0	0	43.530438	8.933925	41.600831	8.933925	7.672994E+13	3.548377E-5	28181.887881	7.49426E+16	0	0	18.186276	0.811301	0	0
0	0	0	43.436762	8.999431	41.50333	8.999431	7.295835E+13	3.528656E-5	28339.390111	7.492491E+16	0	0	18.177601	0.803898	0	0
0	0	0	43.343066	9.062192	41.406548	9.062192	6.937062E+13	3.509296E-5	28495.734182	7.490808E+16	0	0	18.173017	0.796321	0	0
0	0	0	43.254644	9.121832	41.315257	9.121832	6.614609E+13	3.498949E-5	28580.001598	7.489296E+16	0	0	18.179663	0.788815	0	0
0	0	0	43.164183	9.178219	41.222974	9.178219	6.300167E+13	3.482964E-5	28711.17446	7.487821E+16	0	0	18.178826	0.78134	0	0
0	0	0	43.07082	9.231445	41.128908	9.231445	5.991249E+13	3.459504E-5	28905.87149	7.486372E+16	0	0	18.17244	0.773807	0	0
0	0	0	42.977517	9.282493	41.035472	9.282493	5.697605E+13	3.436543E-5	29099.002957	7.484995E+16	0	0	18.162265	0.766297	0	0
0	0	0	42.887036	9.33106	40.945168	9.33106	5.426551E+13	3.417955E-5	29257.25321	7.483724E+16	0	0	18.148141	0.758846	0	0
0	0	0	42.797261	9.377473	40.856042	9.377473	5.170315E+13	3.400426E-5	29408.077904	7.482522E+16	0	0	18.135884	0.7514	0	0
0	0	0	42.707407	9.421333	40.767475	9.421333	4.925934E+13	3.380838E-5	29578.46193	7.481376E+16	0	0	18.134694	0.744228	0	0
0	0	0	42.618338	9.463069	40.680133	9.463069	4.695053E+13	3.361738E-5	29746.517304	7.480293E+16	0	0	18.135796	0.737076	0	0
0	0	0	42.530503	9.502688	40.594404	9.502688	4.477944E+13	3.343548E-5	29908.342388	7.479275E+16	0	0	18.135168	0.730075	0	0
0	0	0	42.442257	9.540085	40.508848	9.540085	4.269899E+13	3.322471E-5	30098.077152	7.478299E+16	0	0	18.13527	0.723296	0	0
0	0	0	42.355226	9.575813	40.424781	9.575813	4.074165E+13	3.303059E-5	30274.964641	7.477381E+16	0	0	18.120036	0.716541	0	0
0	0	0	42.268607	9.609834	40.341496	9.609834	3.888245E+13	3.283388E-5	30456.338669	7.47651E+16	0	0	18.104212	0.709807	0	0
0	0	0	42.18334	9.642184	40.259809	9.642184	3.713497E+13	3.264901E-5	30628.793387	7.47569E+16	0	0	18.101455	0.703068	0	0
0	0	0	42.096113	9.67334	40.176699	9.67334	3.542837E+13	3.243433E-5	30831.523843	7.47489E+16	0	0	18.105965	0.69625	0	0
0	0	0	42.009964	9.702814	40.094937	9.702814	3.38197E+13	3.221984E-5	31036.772742	7.474135E+16	0	0	18.110281	0.689598	0	0
0	0	0	41.924972	9.731792	40.014353	9.731792	3.230408E+13	3.205669E-5	31194.73907	7.473424E+16	0	0	18.114452	0.683162	0	0
0	0	0	41.839293	9.761255	39.933131	9.761255	3.084483E+13	3.196094E-5	31288.191671	7.47274E+16	0	0	18.099349	0.676769	0	0
0	0	0	41.753909	9.788246	39.85271	9.788246	2.945604E+13	3.18094E-5	31437.243888	7.472089E+16	0	0	18.080442	0.670372	0	0
0	0	0	41.669328	9.813204	39.773445	9.813204	2.814188E+13	3.162373E-5	31621.820357	7.471472E+16	0	0	18.069285	0.664115	0	0
0	0	0	41.584748	9.837688	39.694323	9.837688	2.688625E+13	3.14656E-5	31780.734239	7.470883E+16	0	0	18.060433	0.657893	0	0
0	0	0	41.499579	9.861194	39.614922	9.861194	2.567841E+13	3.129809E-5	31950.828964	7.470317E+16	0	0	18.062233	0.651782	0	0
0	0	0	41.415723	9.883179	39.537013	9.883179	2.454213E+13	3.111994E-5	32133.742144	7.469784E+16	0	0	18.06546	0.645727	0	0
0	0	0	41.331378	9.904038	39.458931	9.904038	2.344986E+13	3.091841E-5	32343.19125	7.469272E+16	0	0	18.053116	0.639907	0	0
0	0	0	41.247973	9.923962	39.381895	9.923962	2.241751E+13	3.072542E-5	32546.344329	7.468788E+16	0	0	18.039899	0.634146	0	0
0	0	0	41.164078	9.943139	39.304608	9.943139	2.142488E+13	3.052609E-5	32758.862907	7.468322E+16	0	0	18.023801	0.628381	0	0
0	0	0	41.078772	9.961522	39.22627	9.961522	2.046055E+13	3.030062E-5	33002.626181	7.46787E+16	0	0	18.0052	0.622692	0	0
0	0	0	40.997151	9.979074	39.151359	9.979074	1.957849E+13	3.012767E-5	33192.078796	7.467456E+16	0	0	18.010217	0.617043	0	0
0	0	0	40.91506	9.996118	39.076163	9.996118	1.872965E+13	2.995863E-5	33379.362551	7.467058E+16	0	0	18.012218	0.611505	0	0
0	0	0	40.833753	10.012115	39.001881	10.012115	1.792516E+13	2.977441E-5	33585.890551	7.466681E+16	0	0	18.00686	0.606018	0	0
0	0	0	40.752975	10.027774	38.928157	10.027774	1.716009E+13	2.961851E-5	33762.673628	7.466322E+16	0	0	17.996033	0.60058	0	0
0	0	0	40.672844	10.041978	38.855294	10.041978	1.643338E+13	2.940758E-5	34004.832735	7.465981E+16	0	0	17.970102	0.595256	0	0
0	0	0	40.591909	10.055735	38.781835	10.055735	1.573059E+13	2.918985E-5	34258.484985	7.465652E+16	0	0	17.956166	0.589786	0	0
0	0	0	40.512542	10.069225	38.709826	10.069225	1.507058E+13	2.901628E-5	34463.411128	7.465342E+16	0	0	17.955567	0.584435	0	0
0	0	0	40.432626	10.082076	38.637475	10.082076	1.443396E+13	2.882271E-5	34694.863715	7.465044E+16	0	0	17.954507	0.57896	0	0
0	0	0	40.353417	10.093873	38.565955	10.093873	1.382948E+13	2.859033E-5	34976.856011	7.46476E+16	0	0	17.962818	0.573446	0	0
0	0	0	40.273991	10.105487	38.494301	10.105487	1.324875E+13	2.837572E-5	35241.391227	7.464488E+16	0	0	17.956499	0.568174	0	0
0	0	0	40.193664	10.117379	38.421831	10.117379	1.268621E+13	2.821076E-5	35447.472405	7.464224E+16	0	0	17.931261	0.562922	0	0
0	0	0	40.115238	10.127786	38.351309	10.127786	1.216001E+13	2.797765E-5	35742.810777	7.463977E+16	0	0	17.913951	0.55779	0	0
0	0	0	40.035597	10.138121	38.279755	10.138121	1.164798E+13	2.77547E-5	36029.936766	7.463737E+16	0	0	17.907274	0.552685	0	0
0	0	0	39.957191	10.148453	38.209302	10.148453	1.116494E+13	2.75866E-5	36249.481061	7.46351E+16	0	0	17.903586	0.54762	0	0
0	0	0	39.877902	10.158051	38.138223	10.158051	1.069681E+13	2.736922E-5	36537.389523	7.463291E+16	0	0	17.908723	0.54273	0	0
0	0	0	39.800398	10.167416	38.068764	10.167416	1.025819E+13	2.718984E-5	36778.450223	7.463085E+16	0	0	17.898427	0.53792	0	0
0	0	0	39.721188	10.17633	37.997906	10.17633	9.828475E+12	2.697319E-5	37073.851111	7.462884E+16	0	0	17.874808	0.533073	0	0
0	0	0	39.643193	10.184861	37.928194	10.184861	9.422939E+12	2.676713E-5	37359.25961	7.462693E+16	0	0	17.855773	0.528314	0	0
0	0	0	39.564238	10.193262	37.857679	10.193262	9.029439E+12	2.656685E-5	37640.889009	7.462509E+16	0	0	17.84056	0.523611	0	0
0	0	0	39.486126	10.200888	37.788047	10.200888	8.656303E+12	2.632382E-5	37988.405816	7.462334E+16	0	0	17.839822	0.518856	0	0
0	0	0	39.407739	10.208651	37.718167	10.208651	8.297349E+12	2.612471E-5	38277.937412	7.462166E+16	0	0	17.841518	0.514229	0	0
0	0	0	39.327686	10.215763	37.646951	10.215763	7.946116E+12	2.585678E-5	38674.571234	7.462001E+16	0	0	17.827692	0.50974	0	0
0	0	0	39.247379	10.222879	37.575526	10.222879	7.608696E+12	2.561731E-5	39036.100421	7.461843E+16	0	0	17.808381	0.505264	0	0
0	0	0	39.167738	10.229893	37.504714	10.229893	7.288221E+12	2.540657E-5	39359.897598	7.461692E+16	0	0	17.789433	0.500811	0	0
0	0	0	39.089351	10.236352	37.435102	10.236352	6.985973E+12	2.51733E-5	39724.634955	7.461551E+16	0	0	17.765539	0.496362	0	0
0	0	0	39.010004	10.243072	37.364622	10.243072	6.69278E+12	2.499251E-5	40011.982259	7.461413E+16	0	0	17.770502	0.491957	0	0
0	0	0	38.931696	10.24904	37.295182	10.24904	6.415487E+12	2.475555E-5	40394.982851	7.461283E+16	0	0	17.769483	0.487675	0	0
0	0	0	38.852995	10.254732	37.225456	10.254732	6.148375E+12	2.45037E-5	40810.167216	7.461158E+16	0	0	17.755502	0.483489	0	0
0	0	0	38.773746	10.260456	37.155255	10.260456	5.890634E+12	2.427796E-5	41189.623016	7.461037E+16	0	0	17.740047	0.479235	0	0
0	0	0	38.694634	10.265827	37.08524	10.265827	5.644111E+12	2.40319E-5	41611.35125	7.460921E+16	0	0	17.713392	0.475037	0	0
0	0	0	38.615013	10.27146	37.01475	10.27146	5.406413E+12	2.384757E-5	41932.993649	7.46081E+16	0	0	17.697638	0.47095	0	0
0	0	0	38.53594	10.276386	36.94486	10.276386	5.180259E+12	2.359183E-5	42387.559851	7.460704E+16	0	0	17.697362	0.466827	0	0
0	0	0	38.45575	10.281429	36.873985	10.281429	4.960566E+12	2.336793E-5	42793.68509	7.460601E+16	0	0	17.694152	0.462784	0	0
0	0	0	38.374952	10.286063	36.802651	10.286063	4.748627E+12	2.309931E-5	43291.336611	7.460501E+16	0	0	17.687503	0.458864	0	0
0	0	0	38.294057	10.290843	36.731219	10.290843	4.5455E+12	2.288124E-5	43703.930566	7.460406E+16	0	0	17.667176	0.454884	0	0
0	0	0	38.212965	10.295036	36.659713	10.295036	4.350599E+12	2.259013E-5	44267.122333	7.460315E+16	0	0	17.637789	0.451008	0	0
0	0	0	38.132167	10.299573	36.588421	10.299573	4.164714E+12	2.238835E-5	44666.096331	7.460227E+16	0	0	17.63315	0.447036	0	0
0	0	0	38.050958	10.30355	36.516861	10.30355	3.985882E+12	2.211098E-5	45226.399901	7.460144E+16	0	0	17.630894	0.443017	0	0
0	0	0	37.970102	10.307447	36.44563	10.307447	3.815456E+12	2.184921E-5	45768.246519	7.460064E+16	0	0	17.625834	0.439149	0	0
0	0	0	37.887932	10.311359	36.373257	10.311359	3.649723E+12	2.160048E-5	46295.259718	7.459986E+16	0	0	17.62528	0.435372	0	0
0	0	0	37.80439	10.315305	36.299687	10.315305	3.488599E+12	2.136915E-5	46796.42232	7.45991E+16	0	0	17.59712	0.431515	0	0
0	0	0	37.722632	10.318926	36.227732	10.318926	3.337804E+12	2.112343E-5	47340.802915	7.45984E+16	0	0	17.567805	0.42781	0	0
0	0	0	37.639286	10.322705	36.154373	10.322705	3.190786E+12	2.091697E-5	47808.08263	7.459771E+16	0	0	17.559509	0.423989	0	0
0	0	0	37.554764	10.32591	36.080077	10.32591	3.048304E+12	2.06095E-5	48521.323147	7.459704E+16	0	0	17.548793	0.420292	0	0
0	0	0	37.470027	10.329225	36.005584	10.329225	2.911844E+12	2.034697E-5	49147.361021	7.45964E+16	0	0	17.552104	0.416603	0	0
0	0	0	37.385524	10.33205	35.931372	10.33205	2.781845E+12	2.001026E-5	49974.360007	7.459579E+16	0	0	17.538933	0.412993	0	0
0	0	0	37.299924	10.335186	35.856164	10.335186	2.656073E+12	1.975022E-5	50632.351958	7.45952E+16	0	0	17.501735	0.409375	0	0
0	0	0	37.21456	10.3383	35.781171	10.3383	2.536308E+12	1.951368E-5	51246.10759	7.459464E+16	0	0	17.487208	0.405769	0	0
0	0	0	37.128705	10.340848	35.705834	10.340848	2.421302E+12	1.917267E-5	52157.566873	7.45941E+16	0	0	17.467378	0.40227	0	0
0	0	0	37.043163	10.343739	35.630729	10.343739	2.311902E+12	1.893383E-5	52815.523255	7.459358E+16	0	0	17.466713	0.39872	0	0
0	0	0	36.956544	10.346479	35.55471	10.346479	2.206158E+12	1.867413E-5	53550.019942	7.459309E+16	0	0	17.462925	0.395269	0	0
0	0	0	36.869258	10.349052	35.478137	10.349052	2.104492E+12	1.839326E-5	54367.732661	7.459261E+16	0	0	17.43645	0.391898	0	0
0	0	0	36.781933	10.351541	35.401546	10.351541	2.007468E+12	1.811568E-5	55200.795626	7.459216E+16	0	0	17.412866	0.388423	0	0
0	0	0	36.693491	10.353844	35.32401	10.353844	1.91376E+12	1.78055E-5	56162.418899	7.459172E+16	0	0	17.385822	0.385092	0	0
0	0	0	36.603892	10.356263	35.245453	10.356263	1.823286E+12	1.753491E-5	57029.090712	7.459129E+16	0	0	17.375548	0.381736	0	0
0	0	0	36.514274	10.358495	35.166909	10.358495	1.73707E+12	1.724146E-5	57999.736847	7.459089E+16	0	0	17.381248	0.378361	0	0
0	0	0	36.422421	10.360576	35.086439	10.360576	1.652933E+12	1.691183E-5	59130.210586	7.459049E+16	0	0	17.354055	0.375216	0	0
0	0	0	36.330039	10.362829	35.005489	10.362829	1.572421E+12	1.664335E-5	60084.052758	7.459012E+16	0	0	17.333447	0.371992	0	0
0	0	0	36.237814	10.364682	34.924731	10.364682	1.495957E+12	1.629656E-5	61362.656448	7.458976E+16	0	0	17.305037	0.368772	0	0
0	0	0	36.144177	10.366845	34.842707	10.366845	1.422125E+12	1.603923E-5	62347.122685	7.458941E+16	0	0	17.281674	0.365647	0	0
0	0	0	36.050795	10.3688	34.760936	10.3688	1.352124E+12	1.575241E-5	63482.351078	7.458908E+16	0	0	17.28956	0.362438	0	0
0	0	0	35.955375	10.370596	34.67741	10.370596	1.284152E+12	1.542771E-5	64818.422627	7.458876E+16	0	0	17.28072	0.359373	0	0
0	0	0	35.859249	10.372371	34.593274	10.372371	1.219132E+12	1.51129E-5	66168.619595	7.458846E+16	0	0	17.249125	0.356463	0	0
0	0	0	35.762143	10.373745	34.508335	10.373745	1.15679E+12	1.470242E-5	68016.02614	7.458817E+16	0	0	17.226971	0.353342	0	0
0	0	0	35.663449	10.375954	34.421914	10.375954	1.096695E+12	1.452912E-5	68827.289409	7.458789E+16	0	0	17.196747	0.350261	0	0
0	0	0	35.562461	10.377508	34.333573	10.377508	1.038433E+12	1.417956E-5	70524.048305	7.458761E+16	0	0	17.191765	0.347267	0	0
0	0	0	35.461102	10.378661	34.244958	10.378661	9.830685E+11	1.373652E-5	72798.645109	7.458735E+16	0	0	17.186839	0.344349	0	0
0	0	0	35.358938	10.380428	34.155574	10.380428	9.302512E+11	1.348041E-5	74181.744634	7.45871E+16	0	0	17.169616	0.341407	0	0
0	0	0	35.256383	10.381802	34.065897	10.381802	8.800849E+11	1.313167E-5	76151.796428	7.458687E+16	0	0	17.140578	0.338592	0	0
0	0	0	35.152279	10.383195	33.974869	10.383195	8.319273E+11	1.279826E-5	78135.594909	7.458664E+16	0	0	17.099315	0.335742	0	0
0	0	0	35.046764	10.384817	33.882587	10.384817	7.858049E+11	1.254144E-5	79735.640458	7.458643E+16	0	0	17.100412	0.332784	0	0
0	0	0	34.939308	10.386086	33.788655	10.386086	7.414612E+11	1.219101E-5	82027.636951	7.458622E+16	0	0	17.096513	0.330017	0	0
0	0	0	34.830657	10.387133	33.693707	10.387133	6.991678E+11	1.178949E-5	84821.310384	7.458602E+16	0	0	17.084164	0.327254	0	0
0	0	0	34.720143	10.388582	33.597093	10.388582	6.586234E+11	1.151272E-5	86860.471452	7.458583E+16	0	0	17.049473	0.324658	0	0
0	0	0	34.607336	10.389746	33.498512	10.389746	6.196614E+11	1.116055E-5	89601.348731	7.458565E+16	0	0	17.022644	0.321756	0	0
0	0	0	34.493549	10.390898	33.39908	10.390898	5.826953E+11	1.081937E-5	92426.84235	7.458547E+16	0	0	17.016157	0.318865	0	0
0	0	0	34.377782	10.392228	33.297905	10.392228	5.473484E+11	1.053995E-5	94877.13055	7.458531E+16	0	0	17.021552	0.316019	0	0
0	0	0	34.260604	10.393206	33.195538	10.393206	5.137535E+11	1.017023E-5	98326.177661	7.458515E+16	0	0	17.0016	0.313347	0	0
0	0	0	34.142211	10.394392	33.092092	10.394392	4.819037E+11	9.87504E-6	101265.413363	7.4585E+16	0	0	16.977591	0.310731	0	0
0	0	0	34.021171	10.39539	32.986359	10.39539	4.513823E+11	9.531831E-6	104911.634054	7.458486E+16	0	0	16.942959	0.307992	0	0
0	0	0	33.898622	10.396243	32.879326	10.396243	4.224491E+11	9.15963E-6	109174.720819	7.458472E+16	0	0	16.925763	0.305364	0	0
0	0	0	33.773446	10.397504	32.769963	10.397504	3.948095E+11	8.912911E-6	112196.7837	7.458459E+16	0	0	16.929356	0.302756	0	0
0	0	0	33.645056	10.398536	32.657822	10.398536	3.683376E+11	8.605653E-6	116202.688884	7.458447E+16	0	0	16.905666	0.300259	0	0
0	0	0	33.514667	10.399369	32.543957	10.399369	3.432694E+11	8.252201E-6	121179.790996	7.458435E+16	0	0	16.877695	0.297778	0	0
0	0	0	33.383591	10.400484	32.42947	10.400484	3.197886E+11	7.998099E-6	125029.716255	7.458424E+16	0	0	16.846148	0.295194	0	0
0	0	0	33.249301	10.401005	32.312235	10.401005	2.973967E+11	7.58105E-6	131907.846011	7.458414E+16	0	0	16.827622	0.292662	0	0
0	0	0	33.111756	10.402162	32.192106	10.402162	2.760866E+11	7.351493E-6	136026.799283	7.458404E+16	0	0	16.829107	0.290161	0	0
